timestamp,Channel 1,Channel 2,Channel 3
1767759832,6171.831687291463,11421861,652
1767759832,6191.593011220296,11421871,652
1767759832,6212.219794591268,11421885,652
1767759832,6224.384307861328,11421896,652
1767759832,6223.038037618001,11421905,652
1767759832,6209.142605463664,11421914,652
1767759832,6188.8523896535235,11421931,652
1767759832,6171.014308929443,11421945,652
1767759832,6221.259037653605,11422039,652
1767759832,6214.239199956258,11422060,652
1767759832,6198.468605677287,11422083,652
1767759832,6180.197795232137,11422101,652
1767759832,6166.446606318156,11422121,652
1767759832,6185.150146484375,11422176,652
1767759832,6204.574902852376,11422198,652
1767759832,6221.547524134318,11422222,652
1767759832,6230.442523956299,11422248,652
1767759832,6214.623848597209,11422291,652
1767759832,6193.03544362386,11422319,652
1767759832,6168.850660324097,11422346,652
1767759832,6148.464282353719,11422371,652
1767759832,6137.309471766154,11422401,652
1767759832,6138.6557420094805,11422428,652
1767759832,6152.310768763225,11422456,652
1767759832,6174.476146697998,11422486,652
1767759832,6198.757092158,11422519,652
1767759832,6217.749118804932,11422549,652
1767759832,6161.590417226155,11422719,652
1767759832,6145.964066187541,11422760,652
1767759832,6138.319174448649,11422797,652
1767759832,6137.3575528462725,11422835,652
1767759832,6139.08847173055,11422878,652
1767759832,6139.3288771311445,11422913,652
1767759832,6135.626633961995,11422957,652
1767759832,6129.087607065837,11422998,652
1767759832,6123.26979637146,11423039,652
1767759832,6123.077472050984,11423081,652
1767759832,6131.828228632609,11423128,652
1767759832,6149.425903956096,11423171,652
1767759832,6171.927849451701,11423214,652
1767759832,6192.218065261841,11423254,652
1767759832,6116.39420191447,11423549,652
1767759832,6115.528742472331,11423598,652
1767759832,6132.068634033203,11423647,652
1767759832,6162.503957748413,11423696,652
1767759832,6199.14174079895,11423747,652
1767759832,6232.558091481526,11423797,652
1767759832,6254.771550496419,11423847,652
1767759832,6194.141308466594,11424099,208
1767759832,6179.4765790303545,11424151,208
1767759832,6169.716119766235,11424202,208
1767759832,6104.518175125122,11424546,208
1767759832,6121.923526128133,11424596,208
1767759832,6149.906714757283,11424641,208
1767759832,6181.063254674275,11424690,208
1767759832,6205.873092015584,11424737,208
1767759832,6194.0451463063555,11424873,208
1767759832,6173.610687255859,11424919,208
1767759832,6160.773038864136,11424961,208
1767759832,6162.744363149007,11425003,208
1767759832,6179.236173629761,11425048,208
1767759832,6192.26614634196,11425207,208
1767759832,6149.858633677165,11425248,208
1767759832,6105.81636428833,11425283,208
1767759832,6081.535418828328,11425323,208
1767759832,6095.142364501953,11425359,208
1767759832,6358.867088953654,11425462,208
1767759832,6453.394492467244,11425493,208
1767759832,6505.9951941172285,11425524,208
1767759832,6501.956383387248,11425556,405
1767759832,6443.682114283244,11425588,405
1767759832,6349.972089131673,11425618,405
1767759832,6248.761415481567,11425642,405
1767759832,6167.263984680176,11425671,405
1767759832,6122.308174769084,11425699,405
1767759832,6115.769147872925,11425724,405
1767759832,6135.338147481282,11425746,405
1767759832,6161.782741546631,11425770,405
1767759832,6176.928281784058,11425795,405
1767759832,6171.54320081075,11425817,405
1767759832,6148.512363433838,11425839,405
1767759832,6120.43301264445,11425858,405
1767759832,6103.268067042033,11425876,405
1767759832,6108.65314801534,11425897,405
1767759832,6138.463417689006,11425915,405
1767759832,6183.563470840454,11425931,405
1767759832,6259.531577428182,11425976,405
1767759832,6238.808631896973,11425988,750
1767759832,6205.3922812143965,11426001,750
1767759832,6174.9569574991865,11426015,750
1767759832,6160.773038864136,11426029,750
1767759832,6168.177525202434,11426038,750
1767759832,6191.833416620891,11426048,750
1767759832,6218.951145807902,11426060,750
1767759832,6234.8659833272295,11426067,750
1767759833,6230.154037475586,11426075,750
1767759833,6136.25168800354,11426109,750
1767759833,6168.802579243978,11426118,750
1767759833,6209.334929784139,11426124,750
1767759833,6241.260766983032,11426127,750
1767759833,6251.646280288696,11426131,750
1767759833,6141.444444656372,11426161,833
1767759833,6173.370281855266,11426166,833
1767759833,6210.10422706604,11426170,833
1767759833,6239.818334579468,11426170,833
1767759833,6255.396604537964,11426177,833
1767759833,6247.41514523824,11426206,1364
1767759833,6253.617604573567,11426217,1364
1767759833,6256.550550460815,11426222,1364
1767759833,6256.165901819865,11426229,2143
1767759833,6255.108118057251,11426234,2143
1767759833,6256.646712621053,11426243,2143
1767759833,6262.224117914836,11426251,2143
1767759833,6178.5149574279785,11426319,2500
1767759833,6166.68701171875,11426332,2500
1767759833,6169.09106572469,11426346,2500
1767759833,6182.361443837483,11426359,2500
1767759833,6198.564767837524,11426372,2500
1767759833,6208.806037902832,11426382,2500
1767759833,6139.08847173055,11426454,2500
1767759833,6136.444012324016,11426471,2500
1767759833,6142.213741938273,11426482,2500
1767759833,6151.349147160848,11426503,2500
1767759833,6157.936255137126,11426518,2500
1767759833,6158.4170659383135,11426531,2500
1767759833,6153.416633605957,11426547,2500
1767759833,6146.877606709798,11426563,2500
1767759833,6185.294389724731,11426639,2500
1767759833,6193.46817334493,11426655,2500
1767759833,6195.776065190633,11426670,2500
1767759833,6194.0451463063555,11426686,2500
1767759833,6192.025740941365,11426701,2500
1767759833,6193.227767944336,11426711,2500
1767759833,6218.278010686238,11426780,2500
1767759833,6209.71957842509,11426790,2500
1767759833,6197.9397137959795,11426807,2500
1767759833,6186.9291464487715,11426820,2500
1767759833,6180.630524953206,11426828,2500
1767759833,6220.922470092773,11426874,2500
1767759833,6239.145199457805,11426879,2500
1767759833,6255.444685618083,11426885,2500
1767759833,6267.464955647786,11426898,2500
1767759833,6273.042360941569,11426906,2500
1767759833,6270.97487449646,11426913,2500
1767759833,6260.733604431152,11426919,2500
1767759833,6243.905226389567,11426925,2500
1767759833,6223.422686258952,11426932,2500
1767759833,6203.036308288574,11426939,2500
1767759833,6186.400254567464,11426949,2500
1767759833,6175.774335861206,11426954,2500
1767759833,6185.102065404256,11426981,2500
1767759833,6189.333200454712,11426990,2500
1767759833,6194.3817138671875,11426993,2500
1767759833,6208.902200063069,11427012,2500
1767759833,6201.305389404297,11427014,2500
1767759833,6188.371578852336,11427019,2500
1767759833,6173.610687255859,11427023,2500
1767759833,6161.926984786987,11427024,2500
1767759833,6199.670632680257,11427042,2500
1767759833,6218.903064727783,11427046,2500
1767759833,6231.6445509592695,11427049,2500
1767759833,6234.721740086873,11427051,2500
1767759833,6227.605740229289,11427056,2500
1767759833,6212.460199991862,11427062,2500
1767759833,6192.843119303386,11427061,2500
1767759833,6173.17795753479,11427064,2500
1767759833,6157.022714614868,11427066,2500
1767759833,6147.310336430867,11427074,2500
1767759833,6151.3010660807295,11427080,2500
1767759833,6163.754065831502,11427083,2500
1767759833,6179.572741190593,11427085,2500
1767759833,6193.756659825643,11427088,2500
1767759833,6201.20922724406,11427094,2500
1767759833,6197.699308395386,11427096,2500
1767759833,6182.12103843689,11427099,2500
1767759833,6157.599687576294,11427101,2500
1767759833,6130.866607030232,11427103,2500
1767759833,6109.951337178548,11427106,2500
1767759833,6101.200580596924,11427107,2500
1767759833,6139.136552810669,11427118,2500
1767759833,6147.166093190511,11427118,2500
1767759833,6138.607660929362,11427119,2500
1767759833,6111.92266146342,11427121,2500
1767759833,6072.832743326823,11427125,2500
1767759833,6081.150770187378,11427139,2500
1767759833,6133.559147516887,11427145,2500
1767759833,6185.919443766276,11427144,2500
1767759833,6235.5391184488935,11427144,2500
1767759833,6282.033522923787,11427150,2500
1767759833,6325.73922475179,11427150,2500
1767759833,6419.4973309834795,11427161,2500
1767759833,6406.034628550212,11427162,127
1767759833,6379.493872324626,11427164,127
1767759833,6347.568035125732,11427165,127
1767759833,6319.152116775513,11427165,127
1767759833,6343.433062235515,11427175,127
1767759833,6375.791629155477,11427180,127
1767759833,6407.573223114014,11427179,127
1767759833,6433.29660097758,11427184,127
1767759833,6448.6344655354815,11427185,127
1767759833,6449.980735778809,11427184,127
1767759833,6434.594790140788,11427187,1154
1767759833,6400.889952977498,11427187,1154
1767759833,6136.107444763184,11427195,1154
1767759833,6075.573364893596,11427198,1154
1767759833,6035.185257593791,11427196,1154
1767759833,6018.453041712443,11427199,1154
1767759833,6023.4534740448,11427200,1154
1767759833,6043.551365534465,11427202,1154
1767759833,6069.7074731191,11427202,1154
1767759833,6093.171040217082,11427203,1154
1767759833,6108.412742614746,11427198,1154
1767759833,6114.230553309123,11427195,1154
1767759833,6125.962336858113,11427189,1154
1767759833,6172.168254852295,11427161,1154
1767759833,6171.0623900095625,11427159,1154
1767759833,6179.380416870117,11427153,1154
1767759833,6196.593443552653,11427148,1154
1767759833,6217.604875564575,11427140,1154
1767759833,6239.145199457805,11427127,1154
1767759833,6227.7499834696455,11427118,1154
1767759833,6201.930443445842,11427113,1154
1767759833,6169.235308965047,11427105,1154
1767759833,6127.549012502034,11427079,1154
1767759833,6146.060228347778,11427071,1154
1767759833,6171.879768371582,11427062,1154
1767759833,6194.574038187663,11427055,1154
1767759833,6206.3539028167725,11427045,1154
1767759833,6205.584605534871,11427034,1154
1767759833,6197.12233543396,11427029,1154
1767759833,6190.054416656494,11427016,1154
1767759833,6286.456982294719,11426977,1154
1767759833,6287.755171457927,11426970,1154
1767759833,6270.4940636952715,11426959,1154
1767759833,6241.549253463745,11426956,1154
1767759833,6212.171713511149,11426949,1154
1767759833,6238.039334615071,11426907,1154
1767759833,6222.557226816813,11426905,1154
1767759833,6205.103794733684,11426904,1154
1767759833,6192.362308502197,11426898,1154
1767759833,6187.458038330078,11426895,1154
1767759833,6189.429362614949,11426896,1154
1767759833,6194.189389546712,11426895,1154
1767759833,6186.784903208415,11426893,1154
1767759833,6184.573173522949,11426891,1154
1767759833,6186.15984916687,11426896,1154
1767759833,6190.006335576375,11426899,1154
1767759833,6192.7469571431475,11426903,1154
1767759833,6191.641092300415,11426903,1154
1767759833,6186.15984916687,11426910,1154
1767759833,6178.707281748454,11426913,1154
1767759833,6172.9856332143145,11426917,1154
1767759833,6172.0240116119385,11426921,1154
1767759833,6176.110903422038,11426929,1154
1767759834,6181.976795196533,11426930,1154
1767759834,6184.52509244283,11426940,1154
1767759834,6179.28425470988,11426948,1154
1767759834,6165.388822555542,11426955,1154
1767759834,6153.272390365601,11426994,1154
1767759834,6178.274552027385,11427001,1154
1767759834,6198.2762813568115,11427008,1154
1767759834,6142.454147338867,11427072,1154
1767759834,6156.830390294393,11427084,1154
1767759834,6179.236173629761,11427094,1154
1767759834,6200.584173202515,11427106,1154
1767759834,6212.8448486328125,11427119,1154
1767759834,6212.460199991862,11427130,1154
1767759834,6201.641956965129,11427144,1154
1767759834,6187.025308609009,11427156,1154
1767759834,6176.591714223226,11427167,1154
1767759834,6246.8381722768145,11427243,1154
1767759834,6245.347658793132,11427251,1154
1767759834,6237.606604894002,11427266,1154
1767759834,6227.124929428101,11427278,1154
1767759834,6217.172145843506,11427292,1154
1767759834,6215.248902638753,11427356,1154
1767759834,6221.114794413249,11427364,1154
1767759834,6224.72087542216,11427371,1154
1767759834,6223.47076733907,11427384,1154
1767759834,6215.729713439941,11427389,1154
1767759834,6184.909741083781,11427407,1154
1767759834,6168.898741404216,11427408,1154
1767759834,6158.320903778076,11427412,1154
1767759834,6155.772606531779,11427416,1154
1767759834,6161.109606424968,11427419,1154
1767759834,6171.014308929443,11427421,1154
1767759834,6180.245876312256,11427426,1154
1767759834,6146.252552668254,11427408,1154
1767759834,6156.10917409261,11427404,1154
1767759834,6176.447470982869,11427393,1154
1767759834,6203.324794769287,11427385,1154
1767759834,6230.682929356893,11427374,1154
1767759834,6231.740713119507,11427306,1154
1767759834,6209.2868487040205,11427288,1154
1767759834,6187.554200490315,11427270,1154
1767759834,6168.994903564453,11427253,1154
1767759834,6154.041687647502,11427231,1154
1767759834,6141.348282496135,11427208,1154
1767759834,6129.087607065837,11427185,1154
1767759834,6117.16349919637,11427165,1154
1767759834,6107.354958852132,11427142,1154
1767759834,6103.556553522746,11427115,1154
1767759834,6200.824578603108,11427016,1154
1767759834,6236.45265897115,11426989,1154
1767759834,6258.810361226399,11426962,1154
1767759834,6241.116523742676,11426909,1154
1767759834,6206.3539028167725,11426876,1154
1767759834,6167.985200881958,11426849,1154
1767759834,6138.319174448649,11426823,1154
1767759834,6125.914255777995,11426796,1154
1767759834,6195.295254389445,11426664,1154
1767759834,6192.987362543742,11426641,1154
1767759834,6193.612416585286,11426616,1154
1767759834,6208.806037902832,11426597,1154
1767759834,6246.549685796102,11426572,1154
1767759834,6474.69441095988,11426469,82
1767759834,6426.276763280232,11426453,82
1767759834,6340.211629867554,11426435,82
1767759834,6233.712037404378,11426419,82
1767759834,6128.991444905599,11426407,82
1767759834,6046.532392501831,11426395,82
1767759834,6141.684850056966,11426348,82
1767759834,6194.525957107544,11426341,82
1767759834,6227.509578069051,11426338,82
1767759834,6235.971848169963,11426331,82
1767759834,6221.980253855388,11426328,82
1767759834,6192.843119303386,11426329,82
1767759834,6158.465147018433,11426329,82
1767759834,6098.5080401102705,11426333,82
1767759834,6096.92136446635,11426334,82
1767759834,6098.363796869914,11426337,82
1767759834,6099.421580632527,11426343,82
1767759834,6100.527445475261,11426351,82
1767759834,6105.81636428833,11426358,82
1767759834,6120.721499125163,11426364,82
1767759834,6269.5324420928955,11426418,82
1767759834,6250.011523564656,11426431,82
1767759834,6206.06541633606,11426439,82
1767759834,6152.310768763225,11426454,82
1767759834,6109.326283137004,11426467,82
1767759834,6245.347658793132,11426531,82
1767759834,6303.5257657368975,11426550,82
1767759834,6327.325900395711,11426563,82
1767759834,6305.833657582601,11426582,82
1767759834,6244.482199350993,11426602,82
1767759834,6163.321336110433,11426618,82
1767759834,6088.987986246745,11426635,82
1767759834,6044.993797938029,11426656,82
1767759834,6042.830149332683,11426676,82
1767759834,6079.083283742269,11426695,82
1767759834,6198.709011077881,11426733,82
1767759834,6244.722604751587,11426754,82
1767759834,6268.95546913147,11426773,82
1767759834,6275.975306828816,11426792,82
1767759834,6277.321577072144,11426811,82
1767759834,6284.822225570679,11426831,82
1767759834,6367.906332015991,11426930,254
1767759834,6345.548629760742,11426950,254
1767759834,6315.353711446126,11426969,254
1767759834,6289.966901143392,11426990,254
1767759834,6279.581387837728,11427007,254
1767759834,6324.248711268107,11427096,254
1767759834,6304.006576538086,11427117,254
1767759834,6281.745036443074,11427132,254
1767759834,6273.4270095825195,11427166,254
1767759834,6294.294198354085,11427181,254
1767759834,6322.277386983235,11427197,254
1767759834,6343.336900075276,11427212,254
1767759834,6344.971656799316,11427225,254
1767759834,6222.509145736694,11427266,833
1767759834,6173.803011576335,11427276,833
1767759834,6142.502228418986,11427290,833
1767759834,6133.366823196411,11427305,833
1767759834,6143.271525700887,11427313,833
1767759834,6162.936687469482,11427324,833
1767759834,6181.68830871582,11427329,833
1767759834,6151.781876881917,11427374,833
1767759834,6145.1466878255205,11427383,833
1767759834,6144.569714864095,11427387,833
1767759834,6148.512363433838,11427396,833
1767759834,6154.5224984486895,11427399,833
1767759834,6160.869201024373,11427401,833
1767759834,6166.3023630778,11427410,833
1767759834,6158.945957819621,11427438,833
1767759834,6153.993606567383,11427441,833
1767759834,6150.916417439778,11427443,833
1767759834,6148.752768834432,11427446,833
1767759834,6145.290931065877,11427446,833
1767759834,6117.307742436727,11427466,833
1767759834,6141.204039255778,11427471,833
1767759834,6174.2838223775225,11427473,833
1767759834,6209.142605463664,11427478,833
1767759834,6237.4623616536455,11427481,833
1767759834,6252.848307291667,11427486,833
1767759834,6253.040631612142,11427486,833
1767759834,6239.962577819824,11427494,833
1767759834,6181.4479033152265,11427528,833
1767759834,6184.669335683187,11427535,833
1767759834,6184.813578923543,11427538,833
1767759834,6181.832551956177,11427547,833
1767759834,6207.26744333903,11427608,833
1767759834,6208.709875742595,11427621,833
1767759834,6205.055713653564,11427634,833
1767759834,6198.853254318237,11427646,833
1767759834,6193.708578745524,11427658,833
1767759834,6193.372011184692,11427668,833
1767759834,6199.814875920613,11427677,833
1767759834,6212.12363243103,11427692,833
1767759834,6226.692199707031,11427702,833
1767759834,6238.375902175903,11427718,833
1767759834,6242.462793986003,11427730,833
1767759834,6191.7853355407715,11427797,833
1767759834,6197.795470555623,11427811,833
1767759834,6210.440794626872,11427826,833
1767759834,6223.47076733907,11427834,833
1767759835,6230.39444287618,11427851,833
1767759835,6227.4134159088135,11427864,833
1767759835,6215.152740478516,11427877,833
1767759835,6198.468605677287,11427890,833
1767759835,6184.092362721761,11427907,833
1767759835,6187.458038330078,11427985,833
1767759835,6177.168687184651,11428002,833
1767759835,6167.456309000651,11428016,833
1767759835,6163.465579350789,11428027,833
1767759835,6166.975498199463,11428037,833
1767759835,6181.1113357543945,11428109,833
1767759835,6203.084389368693,11428123,833
1767759835,6245.107253392537,11428129,833
1767759835,6400.120655695598,11428173,833
1767759835,6368.675629297893,11428181,143
1767759835,6307.51649538676,11428188,143
1767759835,6233.471632003784,11428191,143
1767759835,6165.725390116374,11428203,143
1767759835,6098.604202270508,11428229,143
1767759835,6108.412742614746,11428233,143
1767759835,6115.576823552449,11428238,143
1767759835,6113.028526306152,11428240,143
1767759835,6101.200580596924,11428247,143
1767759835,6118.461688359578,11428264,143
1767759835,6139.617363611857,11428269,143
1767759835,6154.8590660095215,11428267,143
1767759835,6162.696282068889,11428269,143
1767759835,6165.773471196492,11428267,143
1767759835,6198.2762813568115,11428257,143
1767759835,6197.12233543396,11428254,143
1767759835,6189.910173416138,11428253,143
1767759835,6177.745660146077,11428233,143
1767759835,6187.8907680511475,11428230,143
1767759835,6202.459335327148,11428223,143
1767759835,6215.825875600179,11428215,143
1767759835,6222.70147005717,11428205,143
1767759835,6220.68206469218,11428199,143
1767759835,6211.5466594696045,11428188,143
1767759835,6199.9110380808515,11428180,143
1767759835,6190.871795018514,11428171,143
1767759835,6187.698443730672,11428162,143
1767759835,6190.198659896851,11428151,143
1767759835,6195.48757870992,11428143,143
1767759835,6195.920308430989,11428089,143
1767759835,6201.305389404297,11428076,143
1767759835,6212.5563621521,11428064,143
1767759835,6227.461496988933,11428053,143
1767759835,6242.799361546834,11428044,143
1767759835,6255.15619913737,11428034,143
1767759835,6263.522307078044,11428020,143
1767759835,6268.763144810994,11428010,143
1767759835,6272.6096312205,11427999,143
1767759835,6276.64844195048,11427991,143
1767759835,6259.387334187825,11427941,143
1767759835,6240.395307540894,11427933,143
1767759835,6221.307118733724,11427924,143
1767759835,6206.45006497701,11427913,143
1767759835,6198.2762813568115,11427906,143
1767759835,6199.14174079895,11427890,143
1767759835,6196.73768679301,11427885,143
1767759835,6189.862092336019,11427878,143
1767759835,6180.582443873088,11427872,143
1767759835,6172.216335932414,11427868,143
1767759835,6195.247173309326,11427851,143
1767759835,6196.0164705912275,11427848,143
1767759835,6190.4871463775635,11427843,143
1767759835,6180.870930353801,11427843,143
1767759835,6171.014308929443,11427841,143
1767759835,6164.427200953166,11427839,143
1767759835,6162.696282068889,11427839,143
1767759835,6163.657903671265,11427836,143
1767759835,6155.8206876118975,11427836,143
1767759835,6147.983471552531,11427831,143
1767759835,6193.756659825643,11427829,143
1767759835,6187.025308609009,11427829,143
1767759835,6185.77520052592,11427829,143
1767759835,6191.400686899821,11427828,143
1767759835,6201.690038045247,11427827,143
1767759835,6212.748686472575,11427826,143
1767759835,6219.816605250041,11427829,143
1767759835,6181.159416834514,11427816,143
1767759835,6176.976362864177,11427817,143
1767759835,6177.409092585246,11427814,143
1767759835,6180.7747681935625,11427812,143
1767759835,6185.198227564494,11427813,143
1767759835,6198.083957036336,11427807,143
1767759835,6200.632254282634,11427802,143
1767759835,6202.315092086792,11427804,143
1767759835,6202.122767766316,11427804,143
1767759835,6199.478308359782,11427800,143
1767759835,6192.26614634196,11427799,143
1767759835,6198.132038116455,11427799,143
1767759835,6203.469038009644,11427797,143
1767759835,6206.161578496297,11427798,143
1767759835,6205.344200134277,11427800,143
1767759835,6209.9119027455645,11427805,143
1767759835,6220.345497131348,11427807,143
1767759835,6229.336659113566,11427810,143
1767759835,6230.105956395467,11427815,143
1767759835,6219.768524169922,11427815,143
1767759835,6204.334497451782,11427821,143
1767759835,6187.650362650554,11427822,143
1767759835,6173.99533589681,11427827,143
1767759835,6166.975498199463,11427827,143
1767759835,6167.985200881958,11427831,143
1767759835,6175.822416941325,11427834,143
1767759835,6187.506119410197,11427841,143
1767759835,6198.853254318237,11427842,143
1767759835,6206.161578496297,11427842,143
1767759835,6207.26744333903,11427849,143
1767759835,6202.218929926555,11427856,143
1767759835,6193.564335505168,11427857,143
1767759835,6185.294389724731,11427857,143
1767759835,6181.015173594157,11427860,143
1767759835,6182.361443837483,11427868,143
1767759835,6188.2273356119795,11427874,143
1767759835,6195.006767908732,11427876,143
1767759835,6198.420524597168,11427876,143
1767759835,6195.6799030303955,11427882,143
1767759835,6186.736822128296,11427883,143
1767759835,6174.6203899383545,11427887,143
1767759835,6164.042552312215,11427890,143
1767759835,6173.706849416097,11427898,143
1767759835,6175.005038579305,11427900,143
1767759835,6170.918146769206,11427904,143
1767759835,6166.3023630778,11427905,143
1767759835,6170.100768407186,11427906,143
1767759835,6191.352605819702,11427904,143
1767759835,6234.337091445923,11427908,143
1767759835,6295.207738876343,11427907,143
1767759835,6360.934575398763,11427905,143
1767759835,6413.102547327678,11427907,143
1767759835,6414.400736490886,11427907,86
1767759835,6356.703440348308,11427908,86
1767759835,6275.206009546916,11427905,86
1767759835,6190.967957178752,11427907,86
1767759835,6123.846769332886,11427909,86
1767759835,6085.52614847819,11427905,86
1767759835,6076.583067576091,11427905,86
1767759835,6109.037796656291,11427887,86
1767759835,6101.392904917399,11427881,86
1767759835,6102.306445439656,11427880,86
1767759835,6115.14409383138,11427876,86
1767759835,6137.213309605916,11427872,86
1767759835,6180.1497141520185,11427847,86
1767759835,6170.918146769206,11427837,86
1767759835,6164.811849594116,11427829,86
1767759835,6167.312065760295,11427826,86
1767759835,6178.8515249888105,11427814,86
1767759835,6194.814443588257,11427802,86
1767759835,6207.507848739624,11427795,86
1767759835,6210.344632466634,11427785,86
1767759835,6201.257308324178,11427775,86
1767759835,6148.079633712769,11427742,86
1767759835,6144.906282424927,11427732,86
1767759835,6154.185930887858,11427717,86
1767759835,6172.408660252889,11427706,86
1767759835,6192.7469571431475,11427693,86
1767759835,6208.036740620931,11427679,86
1767759835,6213.8064702351885,11427667,86
1767759835,6182.457605997722,11427600,86
1767759835,6197.699308395386,11427587,86
1767759835,6222.845713297526,11427571,86
1767759835,6252.223253250122,11427562,86
1767759835,6294.390360514323,11427528,86
1767759836,6194.7182814280195,11427457,86
1767759836,6196.208794911702,11427448,86
1767759836,6209.2868487040205,11427435,86
1767759836,6228.3750375111895,11427426,86
1767759836,6246.64584795634,11427414,86
1767759836,6258.473793665568,11427379,86
1767759836,6257.2236855824785,11427375,86
1767759836,6260.01238822937,11427364,86
1767759836,6265.349388122559,11427358,86
1767759836,6268.811225891113,11427353,86
1767759836,6171.110471089681,11427336,86
1767759836,6149.906714757283,11427332,86
1767759836,6139.617363611857,11427330,86
1767759836,6140.2904987335205,11427328,86
1767759836,6167.648633321126,11427328,86
1767759836,6170.485417048137,11427327,86
1767759836,6168.033281962077,11427329,86
1767759836,6162.792444229126,11427330,86
1767759836,6157.936255137126,11427335,86
1767759836,6156.1572551727295,11427332,86
1767759836,6158.513228098552,11427338,86
1767759836,6164.523363113403,11427339,86
1767759836,6172.456741333008,11427341,86
1767759836,6180.197795232137,11427346,86
1767759836,6186.400254567464,11427351,86
1767759836,6194.333632787068,11427371,86
1767759836,6191.4487679799395,11427376,86
1767759836,6186.881065368652,11427377,86
1767759836,6181.255578994751,11427384,86
1767759836,6176.495552062988,11427387,86
1767759836,6192.314227422078,11427403,86
1767759836,6201.257308324178,11427407,86
1767759836,6206.594308217366,11427409,86
1767759836,6206.113497416179,11427413,86
1767759836,6199.862957000732,11427419,86
1767759836,6189.862092336019,11427422,86
1767759836,6179.716984430949,11427425,86
1767759836,6173.17795753479,11427431,86
1767759836,6172.745227813721,11427433,86
1767759836,6178.803443908691,11427438,86
1767759836,6189.1889572143555,11427441,86
1767759836,6211.498578389485,11427455,86
1767759836,6206.642389297485,11427459,86
1767759836,6200.8726596832275,11427463,86
1767759836,6196.6415246327715,11427465,86
1767759836,6195.295254389445,11427466,86
1767759836,6201.353470484416,11427485,86
1767759836,6198.372443517049,11427486,86
1767759836,6193.323930104573,11427488,86
1767759836,6187.602281570435,11427490,86
1767759836,6182.794173558553,11427494,86
1767759836,6184.717416763306,11427511,86
1767759836,6188.660065333049,11427515,86
1767759836,6193.0835247039795,11427520,86
1767759836,6198.228200276692,11427525,86
1767759836,6204.719146092732,11427528,86
1767759836,6212.989091873169,11427533,86
1767759836,6222.70147005717,11427538,86
1767759836,6232.173442840576,11427547,86
1767759836,6239.481767018636,11427554,86
1767759836,6233.038902282715,11427566,86
1767759836,6222.989956537883,11427570,86
1767759836,6213.277578353882,11427578,86
1767759836,6206.498146057129,11427586,86
1767759836,6203.949848810832,11427594,86
1767759836,6204.190254211426,11427598,86
1767759836,6204.238335291545,11427603,86
1767759836,6200.247605641683,11427611,86
1767759836,6190.342903137207,11427621,86
1767759836,6175.101200739543,11427625,86
1767759836,6157.840092976888,11427628,86
1767759836,6156.686147054036,11427660,86
1767759836,6165.340741475423,11427671,86
1767759836,6168.802579243978,11427677,86
1767759836,6167.696714401245,11427685,86
1767759836,6165.340741475423,11427690,86
1767759836,6166.158119837443,11427694,86
1767759836,6172.552903493245,11427702,86
1767759836,6183.611551920573,11427710,86
1767759836,6195.391416549683,11427716,86
1767759836,6202.651659647624,11427715,86
1767759836,6202.79590288798,11427721,86
1767759836,6197.795470555623,11427731,86
1767759836,6194.958686828613,11427736,86
1767759836,6203.901767730713,11427740,86
1767759836,6231.788794199626,11427745,86
1767759836,6362.953980763753,11427772,87
1767759836,6286.505063374837,11427777,87
1767759836,6198.516686757405,11427779,87
1767759836,6119.807958602905,11427782,87
1767759836,6066.630283991496,11427784,87
1767759836,6116.923093795776,11427796,87
1767759836,6118.077039718628,11427794,87
1767759836,6121.25039100647,11427797,87
1767759836,6132.260958353679,11427798,87
1767759836,6152.022282282512,11427796,87
1767759836,6176.110903422038,11427796,87
1767759836,6197.362740834554,11427792,87
1767759836,6209.046443303426,11427793,87
1767759836,6208.661794662476,11427788,87
1767759836,6198.468605677287,11427787,87
1767759836,6184.477011362712,11427786,87
1767759836,6172.9856332143145,11427784,87
1767759836,6168.129444122314,11427777,87
1767759836,6170.100768407186,11427772,87
1767759836,6183.034578959147,11427731,87
1767759836,6196.160713831584,11427726,87
1767759836,6211.450497309367,11427719,87
1767759836,6223.134199778239,11427710,87
1767759836,6226.1152267456055,11427700,87
1767759836,6218.3741728464765,11427694,87
1767759836,6202.363173166911,11427684,87
1767759836,6217.4125512441,11427623,87
1767759836,6236.116091410319,11427613,87
1767759836,6247.078577677409,11427605,87
1767759836,6249.194145202637,11427593,87
1767759836,6244.434118270874,11427582,87
1767759836,6236.981550852458,11427570,87
1767759836,6231.3079833984375,11427561,87
1767759836,6257.704496383667,11427501,87
1767759836,6261.839469273885,11427490,87
1767759836,6265.397469202678,11427482,87
1767759836,6268.378496170044,11427474,87
1767759836,6269.580523173015,11427465,87
1767759836,6267.705361048381,11427457,87
1767759836,6261.7433071136475,11427451,87
1767759836,6251.934766769409,11427445,87
1767759836,6240.202983220418,11427437,87
1767759836,6214.094956715901,11427419,87
1767759836,6208.421389261882,11427415,87
1767759836,6200.632254282634,11427409,87
1767759836,6188.708146413167,11427405,87
1767759836,6173.129876454671,11427401,87
1767759836,6156.782309214274,11427396,87
1767759836,6144.425471623738,11427394,87
1767759836,6140.6270662943525,11427395,87
1767759836,6191.352605819702,11427386,87
1767759836,6193.0835247039795,11427388,87
1767759836,6137.646039326985,11427392,87
1767759836,6148.656606674194,11427391,87
1767759836,6165.05225499471,11427392,87
1767759836,6179.716984430949,11427392,87
1767759836,6186.496416727702,11427396,87
1767759836,6183.659633000691,11427398,87
1767759836,6183.948119481404,11427410,87
1767759836,6201.113065083821,11427412,87
1767759836,6213.469902674357,11427415,87
1767759836,6215.4412269592285,11427420,87
1767759836,6205.873092015584,11427422,87
1767759836,6188.419659932454,11427427,87
1767759836,6170.004606246948,11427429,87
1767759836,6157.984336217244,11427433,87
1767759836,6157.022714614868,11427434,87
1767759836,6218.758821487427,11427447,87
1767759836,6226.547956466675,11427452,87
1767759836,6227.269172668457,11427453,87
1767759836,6223.374605178833,11427459,87
1767759836,6218.470335006714,11427462,87
1767759836,6214.96041615804,11427465,87
1767759836,6213.614145914714,11427467,87
1767759836,6212.796767552693,11427472,87
1767759836,6210.5850378672285,11427475,87
1767759836,6205.584605534871,11427478,87
1767759836,6188.756227493286,11427488,87
1767759836,6180.870930353801,11427493,87
1767759836,6176.447470982869,11427496,87
1767759836,6176.735957463582,11427499,87
1767759836,6181.592146555583,11427504,87
1767759836,6207.171281178792,11427526,87
1767759836,6208.9502811431885,11427528,87
1767759836,6209.623416264852,11427535,87
1767759836,6210.48887570699,11427537,87
1767759836,6212.412118911743,11427543,87
1767759836,6215.296983718872,11427554,87
1767759836,6218.133767445882,11427557,87
1767759836,6219.528118769328,11427560,87
1767759837,6218.085686365764,11427569,87
1767759837,6213.373740514119,11427580,87
1767759837,6197.12233543396,11427590,87
1767759837,6188.708146413167,11427598,87
1767759837,6181.880633036296,11427603,87
1767759837,6177.2167682647705,11427609,87
1767759837,6174.668471018474,11427619,87
1767759837,6174.043416976929,11427628,87
1767759837,6174.81271425883,11427636,87
1767759837,6176.8802007039385,11427643,87
1767759837,6188.948551813762,11427674,87
1767759837,6185.823281606038,11427681,87
1767759837,6177.457173665364,11427689,87
1767759837,6165.196498235066,11427698,87
1767759837,6152.791579564412,11427707,87
1767759837,6160.099903742473,11427731,87
1767759837,6180.342038472493,11427737,87
1767759837,6201.064984003703,11427748,87
1767759837,6213.662226994832,11427757,87
1767759837,6195.727984110515,11427773,87
1767759837,6173.033714294434,11427779,87
1767759837,6157.551606496175,11427786,87
1767759837,6163.754065831502,11427794,87
1767759837,6200.632254282634,11427804,87
1767759837,6266.88798268636,11427809,87
1767759837,6426.613330841064,11427826,87
1767759837,6474.742492039998,11427833,87
1767759837,6476.665735244751,11427841,87
1767759837,6428.2480875651045,11427846,89
1767759837,6339.875062306722,11427851,89
1767759837,6233.375469843547,11427859,89
1767759837,6133.895715077718,11427868,89
1767759837,6062.062581380208,11427875,89
1767759837,6027.780771255493,11427877,89
1767759837,6028.646230697632,11427887,89
1767759837,6052.638689676921,11427886,89
1767759837,6084.32412147522,11427890,89
1767759837,6110.912958780925,11427897,89
1767759837,6126.10658009847,11427900,89
1767759837,6130.962769190471,11427903,89
1767759837,6131.347417831421,11427906,89
1767759837,6133.126417795817,11427912,89
1767759837,6139.90585009257,11427913,89
1767759837,6151.204903920491,11427915,89
1767759837,6163.513660430908,11427919,89
1767759837,6173.129876454671,11427923,89
1767759837,6177.889903386434,11427921,89
1767759837,6178.130308787028,11427922,89
1767759837,6176.351308822632,11427924,89
1767759837,6175.19736289978,11427926,89
1767759837,6176.207065582275,11427923,89
1767759837,6179.043849309285,11427925,89
1767759837,6182.024876276652,11427922,89
1767759837,6183.707714080811,11427926,89
1767759837,6184.092362721761,11427920,89
1767759837,6184.909741083781,11427920,89
1767759837,6188.371578852336,11427919,89
1767759837,6224.047740300496,11427907,89
1767759837,6224.288145701091,11427902,89
1767759837,6216.835578282674,11427900,89
1767759837,6204.094092051188,11427897,89
1767759837,6190.583308537801,11427888,89
1767759837,6181.399822235107,11427887,89
1767759837,6179.524660110474,11427882,89
1767759837,6184.813578923543,11427879,89
1767759837,6194.333632787068,11427877,89
1767759837,6204.094092051188,11427873,89
1767759837,6210.777362187703,11427865,89
1767759837,6213.469902674357,11427858,89
1767759837,6262.656847635905,11427823,89
1767759837,6254.579226175944,11427820,89
1767759837,6245.636145273845,11427814,89
1767759837,6238.856712977092,11427817,89
1767759837,6236.308415730794,11427809,89
1767759837,6238.039334615071,11427811,89
1767759837,6242.510875066121,11427810,89
1767759837,6247.607469558716,11427806,89
1767759837,6251.694361368815,11427807,89
1767759837,6253.713766733806,11427806,89
1767759837,6253.713766733806,11427805,89
1767759837,6251.213550567627,11427805,89
1767759837,6245.588064193726,11427807,89
1767759837,6221.018632253011,11427808,89
1767759837,6201.97852452596,11427808,89
1767759837,6180.438200632731,11427809,89
1767759837,6159.81141726176,11427811,89
1767759837,6143.896579742432,11427816,89
1767759837,6135.770877202352,11427817,89
1767759837,6136.444012324016,11427822,89
1767759837,6144.281228383382,11427824,89
1767759837,6176.591714223226,11427851,89
1767759837,6174.668471018474,11427856,89
1767759837,6174.476146697998,11427871,89
1767759837,6176.591714223226,11427877,89
1767759837,6177.986065546672,11427881,89
1767759837,6176.2551466623945,11427889,89
1767759837,6170.437335968018,11427896,89
1767759837,6161.301930745442,11427904,89
1767759837,6151.397228240967,11427909,89
1767759837,6143.992741902669,11427919,89
1767759837,6141.829093297322,11427926,89
1767759837,6146.156390508016,11427932,89
1767759837,6156.638065973918,11427940,89
1767759837,6171.206633249919,11427951,89
1767759837,6187.169551849365,11427955,89
1767759837,6202.026605606079,11427963,89
1767759837,6213.75838915507,11427968,89
1767759837,6221.307118733724,11427981,89
1767759837,6224.432388941447,11427984,89
1767759837,6222.989956537883,11427996,89
1767759837,6217.316389083862,11428001,89
1767759837,6208.325227101644,11428007,89
1767759837,6198.132038116455,11428015,89
1767759837,6189.140876134236,11428022,89
1767759837,6183.948119481404,11428034,89
1767759837,6184.188524881999,11428040,89
1767759837,6189.910173416138,11428047,89
1767759837,6198.949416478475,11428053,89
1767759837,6208.277146021525,11428060,89
1767759837,6214.1430377960205,11428068,89
1767759837,6185.053984324138,11428099,89
1767759837,6214.383443196614,11428169,89
1767759837,6213.325659434001,11428184,89
1767759837,6209.671497344971,11428191,89
1767759837,6203.084389368693,11428204,89
1767759837,6194.862524668376,11428206,89
1767759837,6187.265714009603,11428214,89
1767759837,6182.601849238078,11428221,89
1767759837,6183.948119481404,11428243,89
1767759837,6186.54449780782,11428247,89
1767759837,6186.97722752889,11428253,89
1767759837,6183.659633000691,11428269,89
1767759837,6177.505254745483,11428276,89
1767759837,6171.447038650513,11428281,89
1767759837,6187.025308609009,11428328,89
1767759837,6185.630957285563,11428339,89
1767759837,6178.899606068929,11428350,89
1767759837,6169.716119766235,11428358,89
1767759837,6163.080930709839,11428368,89
1767759837,6162.9847685496015,11428379,89
1767759837,6200.055281321208,11428429,89
1767759837,6195.824146270752,11428441,89
1767759837,6195.727984110515,11428451,89
1767759837,6208.229064941406,11428460,89
1767759837,6238.423983256022,11428468,89
1767759837,6376.609007517497,11428521,93
1767759837,6325.979630152385,11428530,93
1767759837,6252.7040640513105,11428538,93
1767759837,6173.6587683359785,11428553,93
1767759837,6106.874148050944,11428554,93
1767759837,6125.625769297282,11428600,93
1767759837,6133.366823196411,11428606,93
1767759837,6134.809255599976,11428610,93
1767759837,6135.530471801758,11428615,93
1767759837,6140.72322845459,11428623,93
1767759837,6169.52379544576,11428626,93
1767759837,6188.371578852336,11428632,93
1767759837,6204.238335291545,11428629,93
1767759837,6213.854551315308,11428631,93
1767759837,6215.970118840535,11428635,93
1767759837,6211.258172988892,11428634,93
1767759837,6162.407795588176,11428618,93
1767759837,6167.840957641602,11428612,93
1767759837,6177.745660146077,11428611,93
1767759837,6189.5255247751875,11428602,93
1767759837,6199.622551600139,11428597,93
1767759837,6204.719146092732,11428589,93
1767759837,6203.180551528931,11428578,93
1767759837,6195.6799030303955,11428574,93
1767759837,6185.630957285563,11428565,93
1767759837,6177.64949798584,11428558,93
1767759837,6175.774335861206,11428545,93
1767759837,6181.592146555583,11428537,93
1767759837,6193.660497665405,11428523,93
1767759837,6227.605740229289,11428482,93
1767759837,6221.884091695149,11428470,93
1767759837,6214.431524276733,11428458,93
1767759837,6209.623416264852,11428444,93
1767759837,6210.48887570699,11428437,93
1767759838,6218.0376052856445,11428421,93
1767759838,6277.129252751668,11428360,93
1767759838,6279.340982437134,11428348,93
1767759838,6277.610063552856,11428338,93
1767759838,6272.657712300618,11428330,93
1767759838,6265.012820561727,11428315,93
1767759838,6213.950713475545,11428265,93
1767759838,6211.354335149129,11428255,93
1767759838,6212.5563621521,11428246,93
1767759838,6215.489308039348,11428242,93
1767759838,6217.027902603149,11428232,93
1767759838,6214.287281036377,11428223,93
1767759838,6205.440362294515,11428218,93
1767759838,6148.897012074788,11428198,93
1767759838,6148.271958033244,11428190,93
1767759838,6156.061093012492,11428186,93
1767759838,6181.495984395345,11428178,93
1767759838,6188.61198425293,11428175,93
1767759838,6186.736822128296,11428172,93
1767759838,6175.533930460612,11428169,93
1767759838,6158.609390258789,11428166,93
1767759838,6141.732931137085,11428166,93
1767759838,6131.010850270589,11428163,93
1767759838,6130.241552988688,11428158,93
1767759838,6197.843551635742,11428158,93
1767759838,6195.583740870158,11428151,93
1767759838,6186.881065368652,11428151,93
1767759838,6176.495552062988,11428153,93
1767759838,6169.7642008463545,11428154,93
1767759838,6170.004606246948,11428153,93
1767759838,6177.64949798584,11428149,93
1767759838,6190.583308537801,11428151,93
1767759838,6204.574902852376,11428147,93
1767759838,6215.585470199585,11428148,93
1767759838,6220.633983612061,11428144,93
1767759838,6219.383875528972,11428148,93
1767759838,6213.710308074951,11428147,93
1767759838,6207.027037938436,11428148,93
1767759838,6202.363173166911,11428146,93
1767759838,6201.20922724406,11428144,93
1767759838,6202.843983968099,11428144,93
1767759838,6204.863389333089,11428140,93
1767759838,6204.382578531901,11428140,93
1767759838,6199.382146199544,11428141,93
1767759838,6190.006335576375,11428138,93
1767759838,6178.803443908691,11428135,93
1767759838,6169.860363006592,11428134,93
1767759838,6167.889038721721,11428131,93
1767759838,6175.389687220256,11428132,93
1767759838,6191.689173380534,11428132,93
1767759838,6212.5082810719805,11428130,93
1767759838,6231.59646987915,11428125,93
1767759838,6242.414712905884,11428128,93
1767759838,6240.9241994222,11428124,93
1767759838,6227.028767267863,11428122,93
1767759838,6204.671065012614,11428121,93
1767759838,6181.159416834514,11428120,93
1767759838,6163.994471232097,11428121,93
1767759838,6158.320903778076,11428120,93
1767759838,6165.004173914592,11428113,93
1767759838,6180.582443873088,11428117,93
1767759838,6198.853254318237,11428116,93
1767759838,6213.229497273763,11428116,93
1767759838,6219.43195660909,11428113,93
1767759838,6216.59517288208,11428111,93
1767759838,6207.411686579387,11428113,93
1767759838,6184.14044380188,11428107,93
1767759838,6184.188524881999,11428110,93
1767759838,6185.438632965088,11428107,93
1767759838,6184.813578923543,11428110,93
1767759838,6180.967092514038,11428108,93
1767759838,6179.4765790303545,11428108,93
1767759838,6189.910173416138,11428104,93
1767759838,6198.180119196574,11428104,93
1767759838,6201.305389404297,11428106,93
1767759838,6198.564767837524,11428108,93
1767759838,6192.362308502197,11428107,93
1767759838,6188.948551813762,11428107,93
1767759838,6182.024876276652,11428105,93
1767759838,6166.927417119344,11428106,93
1767759838,6147.406498591105,11428107,93
1767759838,6131.972471872966,11428103,93
1767759838,6130.962769190471,11428103,93
1767759838,6395.601034164429,11428094,93
1767759838,6430.0270875295,11428095,93
1767759838,6429.402033487956,11428089,92
1767759838,6393.293142318726,11428086,92
1767759838,6254.819631576538,11428077,92
1767759838,6182.794173558553,11428073,92
1767759838,6126.779715220134,11428069,92
1767759838,6093.267202377319,11428066,92
1767759838,6082.112391789754,11428058,92
1767759838,6087.785959243774,11428059,92
1767759838,6102.1622021993,11428051,92
1767759838,6117.644309997559,11428046,92
1767759838,6128.799120585124,11428040,92
1767759838,6133.895715077718,11428038,92
1767759838,6134.328444798787,11428029,92
1767759838,6132.982174555461,11428020,92
1767759838,6132.886012395223,11428014,92
1767759838,6154.762903849284,11427990,92
1767759838,6167.360146840413,11427977,92
1767759838,6179.572741190593,11427970,92
1767759838,6189.285119374593,11427961,92
1767759838,6195.247173309326,11427948,92
1767759838,6197.3146597544355,11427939,92
1767759838,6196.160713831584,11427927,92
1767759838,6192.698876063029,11427915,92
1767759838,6188.17925453186,11427904,92
1767759838,6183.803876241048,11427892,92
1767759838,6179.8131465911865,11427853,92
1767759838,6182.265281677246,11427838,92
1767759838,6186.256011327107,11427822,92
1767759838,6191.208362579346,11427809,92
1767759838,6196.064551671346,11427793,92
1767759838,6191.689173380534,11427715,92
1767759838,6190.198659896851,11427699,92
1767759838,6192.314227422078,11427683,92
1767759838,6198.660929997762,11427670,92
1767759838,6208.132902781169,11427650,92
1767759838,6218.422253926595,11427634,92
1767759838,6237.270037333171,11427568,92
1767759838,6240.635712941487,11427553,92
1767759838,6246.886253356934,11427537,92
1767759838,6262.993415196736,11427505,92
1767759838,6266.262928644816,11427492,92
1767759838,6262.272198994954,11427481,92
1767759838,6250.540415445964,11427465,92
1767759838,6233.808199564616,11427447,92
1767759838,6212.796767552693,11427397,92
1767759838,6224.576632181804,11427385,92
1767759838,6234.625577926636,11427370,92
1767759838,6237.750848134358,11427361,92
1767759838,6232.02919960022,11427352,92
1767759838,6219.3357944488525,11427342,92
1767759838,6204.671065012614,11427333,92
1767759838,6193.660497665405,11427325,92
1767759838,6189.862092336019,11427315,92
1767759838,6193.03544362386,11427305,92
1767759838,6202.747821807861,11427297,92
1767759838,6199.285984039307,11427288,92
1767759838,6187.458038330078,11427280,92
1767759838,6170.100768407186,11427274,92
1767759838,6152.358849843343,11427269,92
1767759838,6135.4343096415205,11427261,92
1767759838,6140.002012252808,11427255,92
1767759838,6150.627930959065,11427256,92
1767759838,6163.129011789958,11427253,92
1767759838,6180.7747681935625,11427248,92
1767759838,6184.765497843425,11427246,92
1767759838,6187.121470769246,11427244,92
1767759838,6189.044713973999,11427244,92
1767759838,6190.24674097697,11427242,92
1767759838,6169.4276332855225,11427240,92
1767759838,6160.244146982829,11427239,92
1767759838,6154.474417368571,11427237,92
1767759838,6154.426336288452,11427240,92
1767759838,6160.484552383423,11427239,92
1767759838,6194.093227386475,11427236,92
1767759838,6202.843983968099,11427239,92
1767759838,6209.190686543782,11427238,92
1767759838,6214.046875635783,11427239,92
1767759838,6217.893362045288,11427238,92
1767759838,6220.633983612061,11427237,92
1767759838,6221.210956573486,11427237,92
1767759838,6218.518416086833,11427242,92
1767759838,6211.979389190674,11427242,92
1767759838,6187.361876169841,11427244,92
1767759838,6187.409957249959,11427245,92
1767759838,6194.189389546712,11427245,92
1767759838,6205.536524454753,11427245,92
1767759838,6217.508713404338,11427249,92
1767759838,6225.7786591847735,11427247,92
1767759838,6172.120173772176,11427253,92
1767759838,6160.147984822591,11427256,92
1767759838,6154.955228169759,11427257,92
1767759838,6157.022714614868,11427256,92
1767759838,6231.548388799031,11427273,92
1767759838,6234.529415766398,11427277,92
1767759838,6232.077280680339,11427279,92
1767759838,6225.297848383586,11427282,92
1767759838,6216.306686401367,11427288,92
1767759838,6207.459767659505,11427290,92
1767759838,6200.920740763347,11427294,92
1767759838,6197.458902994792,11427301,92
1767759839,6186.640659968059,11427326,92
1767759839,6179.572741190593,11427328,92
1767759839,6172.456741333008,11427341,92
1767759839,6166.68701171875,11427342,92
1767759839,6163.513660430908,11427349,92
1767759839,6175.389687220256,11427383,92
1767759839,6176.639795303345,11427388,92
1767759839,6175.966660181682,11427397,92
1767759839,6173.6587683359785,11427400,92
1767759839,6170.3892548878985,11427407,92
1767759839,6166.975498199463,11427415,92
1767759839,6164.475282033284,11427422,92
1767759839,6162.840525309245,11427429,92
1767759839,6161.398092905681,11427438,92
1767759839,6159.186363220215,11427444,92
1767759839,6155.628363291423,11427445,92
1767759839,6151.156822840373,11427458,92
1767759839,6148.608525594075,11427462,92
1767759839,6152.118444442749,11427470,92
1767759839,6166.68701171875,11427474,92
1767759839,6196.160713831584,11427483,92
1767759839,6240.443388621013,11427484,92
1767759839,6294.630765914917,11427494,92
1767759839,6348.721981048584,11427496,92
1767759839,6390.360196431478,11427502,92
1767759839,6408.582925796509,11427509,92
1767759839,6163.225173950195,11427527,89
1767759839,6116.057634353638,11427530,89
1767759839,6089.661121368408,11427536,89
1767759839,6082.016229629517,11427537,89
1767759839,6087.064743041992,11427538,89
1767759839,6097.738742828369,11427536,89
1767759839,6108.65314801534,11427538,89
1767759839,6117.884715398152,11427541,89
1767759839,6126.346985499064,11427542,89
1767759839,6136.299769083659,11427542,89
1767759839,6149.425903956096,11427537,89
1767759839,6196.160713831584,11427528,89
1767759839,6193.804740905762,11427529,89
1767759839,6187.169551849365,11427527,89
1767759839,6180.293957392375,11427524,89
1767759839,6177.168687184651,11427520,89
1767759839,6218.422253926595,11427490,89
1767759839,6221.45136197408,11427480,89
1767759839,6220.057010650635,11427478,89
1767759839,6215.681632359822,11427473,89
1767759839,6209.863821665446,11427460,89
1767759839,6177.361011505127,11427417,89
1767759839,6173.6587683359785,11427409,89
1767759839,6172.600984573364,11427398,89
1767759839,6174.235741297404,11427386,89
1767759839,6177.697579065959,11427379,89
1767759839,6189.621686935425,11427349,89
1767759839,6195.295254389445,11427334,89
1767759839,6204.719146092732,11427326,89
1767759839,6218.9992268880205,11427315,89
1767759839,6260.82976659139,11427254,89
1767759839,6241.164604822795,11427241,89
1767759839,6221.355199813843,11427232,89
1767759839,6206.834713617961,11427228,89
1767759839,6200.488011042277,11427217,89
1767759839,6219.768524169922,11427185,89
1767759839,6220.24933497111,11427180,89
1767759839,6217.797199885051,11427166,89
1767759839,6214.527686436971,11427163,89
1767759839,6212.5563621521,11427158,89
1767759839,6212.027470270793,11427136,89
1767759839,6209.046443303426,11427133,89
1767759839,6206.834713617961,11427130,89
1767759839,6205.728848775228,11427130,89
1767759839,6204.334497451782,11427129,89
1767759839,6199.9110380808515,11427128,89
1767759839,6189.765930175781,11427129,89
1767759839,6172.552903493245,11427128,89
1767759839,6150.195201237996,11427127,89
1767759839,6127.597093582153,11427129,89
1767759839,6111.297607421875,11427126,89
1767759839,6106.874148050944,11427131,89
1767759839,6116.2980397542315,11427132,89
1767759839,6137.06906636556,11427136,89
1767759839,6163.129011789958,11427137,89
1767759839,6187.025308609009,11427136,89
1767759839,6194.237470626831,11427152,89
1767759839,6193.323930104573,11427158,89
1767759839,6197.218497594197,11427157,89
1767759839,6203.420956929524,11427167,89
1767759839,6208.806037902832,11427166,89
1767759839,6210.969686508179,11427170,89
1767759839,6209.623416264852,11427181,89
1767759839,6199.718713760376,11427194,89
1767759839,6198.2762813568115,11427201,89
1767759839,6194.525957107544,11427207,89
1767759839,6189.140876134236,11427206,89
1767759839,6184.188524881999,11427211,89
1767759839,6181.784470876058,11427215,89
1767759839,6182.649930318196,11427222,89
1767759839,6187.746524810791,11427233,89
1767759839,6183.32306543986,11427235,89
1767759839,6176.399389902751,11427241,89
1767759839,6170.581579208374,11427243,89
1767759839,6170.148849487305,11427250,89
1767759839,6177.697579065959,11427256,89
1767759839,6192.65079498291,11427255,89
1767759839,6207.171281178792,11427275,89
1767759839,6186.207930246989,11427279,89
1767759839,6168.177525202434,11427278,89
1767759839,6159.186363220215,11427285,89
1767759839,6161.494255065918,11427290,89
1767759839,6172.889471054077,11427294,89
1767759839,6187.698443730672,11427300,89
1767759839,6199.334065119426,11427303,89
1767759839,6198.6128489176435,11427312,89
1767759839,6189.140876134236,11427314,89
1767759839,6180.48628171285,11427316,89
1767759839,6178.226470947266,11427321,89
1767759839,6185.294389724731,11427327,89
1767759839,6237.414280573527,11427357,89
1767759839,6218.0376052856445,11427360,89
1767759839,6197.026173273723,11427365,89
1767759839,6180.390119552612,11427372,89
1767759839,6172.312498092651,11427373,89
1767759839,6174.043416976929,11427381,89
1767759839,6197.843551635742,11427408,89
1767759839,6183.082660039266,11427415,89
1767759839,6167.167822519938,11427418,89
1767759839,6156.445741653442,11427421,89
1767759839,6155.532201131185,11427430,89
1767759839,6164.9080117543535,11427434,89
1767759839,6131.347417831421,11427468,89
1767759839,6131.635904312134,11427474,89
1767759839,6150.339444478353,11427476,89
1767759839,6181.495984395345,11427478,89
1767759839,6212.652524312337,11427482,89
1767759839,6162.407795588176,11427500,89
1767759839,6136.924823125203,11427502,89
1767759839,6139.569282531738,11427510,89
1767759839,6179.428497950236,11427514,89
1767759839,6251.646280288696,11427512,89
1767759839,6388.917764027913,11427527,85
1767759839,6303.189198176066,11427524,85
1767759839,6210.969686508179,11427530,85
1767759839,6134.905417760213,11427531,85
1767759839,6088.651418685913,11427534,85
1767759839,6115.096012751262,11427531,85
1767759839,6110.961039861043,11427532,85
1767759839,6105.912526448567,11427529,85
1767759839,6107.354958852132,11427531,85
1767759839,6119.471391042073,11427528,85
1767759839,6140.578985214233,11427525,85
1767759839,6165.244579315186,11427524,85
1767759839,6186.54449780782,11427521,85
1767759839,6199.766794840495,11427517,85
1767759839,6195.199092229207,11427495,85
1767759839,6195.48757870992,11427496,85
1767759839,6196.6415246327715,11427485,85
1767759839,6195.631821950276,11427477,85
1767759839,6189.958254496257,11427470,85
1767759839,6158.56130917867,11427450,85
1767759839,6155.532201131185,11427438,85
1767759839,6160.147984822591,11427434,85
1767759839,6170.821984608968,11427422,85
1767759839,6183.515389760335,11427412,85
1767759839,6193.660497665405,11427400,85
1767759839,6197.9397137959795,11427392,85
1767759839,6195.727984110515,11427380,85
1767759839,6189.477443695068,11427370,85
1767759839,6183.467308680217,11427359,85
1767759839,6182.024876276652,11427349,85
1767759839,6187.458038330078,11427335,85
1767759840,6199.5263894399,11427321,85
1767759840,6215.1046593983965,11427313,85
1767759840,6230.154037475586,11427299,85
1767759840,6240.635712941487,11427289,85
1767759840,6243.905226389567,11427280,85
1767759840,6209.623416264852,11427220,85
1767759840,6213.1814161936445,11427213,85
1767759840,6222.364902496338,11427199,85
1767759840,6235.010226567586,11427189,85
1767759840,6248.4729290008545,11427180,85
1767759840,6266.743739446004,11427161,85
1767759840,6268.5708204905195,11427155,85
1767759840,6265.541712443034,11427144,85
1767759840,6258.954604466756,11427137,85
1767759840,6250.251928965251,11427131,85
1767759840,6224.576632181804,11427108,85
1767759840,6217.845280965169,11427103,85
1767759840,6211.642821629842,11427098,85
1767759840,6205.680767695109,11427089,85
1767759840,6200.151443481445,11427088,85
1767759840,6195.776065190633,11427084,85
1767759840,6191.4487679799395,11427082,85
1767759840,6190.342903137207,11427077,85
1767759840,6187.986930211385,11427077,85
1767759840,6183.034578959147,11427074,85
1767759840,6174.81271425883,11427073,85
1767759840,6148.993174235026,11427075,85
1767759840,6159.0902010599775,11427078,85
1767759840,6170.052687327067,11427078,85
1767759840,6177.505254745483,11427078,85
1767759840,6147.935390472412,11427095,85
1767759840,6158.609390258789,11427100,85
1767759840,6173.3222007751465,11427100,85
1767759840,6187.121470769246,11427105,85
1767759840,6195.776065190633,11427111,85
1767759840,6197.843551635742,11427114,85
1767759840,6194.958686828613,11427117,85
1767759840,6190.727551778157,11427120,85
1767759840,6188.99663289388,11427123,85
1767759840,6209.046443303426,11427134,85
1767759840,6208.132902781169,11427137,85
1767759840,6202.892065048218,11427142,85
1767759840,6196.353038152059,11427146,85
1767759840,6192.410389582316,11427151,85
1767759840,6220.922470092773,11427165,85
1767759840,6218.518416086833,11427164,85
1767759840,6211.690902709961,11427164,85
1767759840,6203.517119089763,11427171,85
1767759840,6197.3146597544355,11427170,85
1767759840,6194.333632787068,11427174,85
1767759840,6193.756659825643,11427178,85
1767759840,6169.283390045166,11427191,85
1767759840,6175.341606140137,11427194,85
1767759840,6186.304092407227,11427203,85
1767759840,6197.9397137959795,11427205,85
1767759840,6205.728848775228,11427208,85
1767759840,6206.6904703776045,11427208,85
1767759840,6201.113065083821,11427213,85
1767759840,6192.458470662435,11427217,85
1767759840,6199.718713760376,11427238,85
1767759840,6201.305389404297,11427244,85
1767759840,6196.881930033366,11427248,85
1767759840,6187.842686971028,11427251,85
1767759840,6178.082227706909,11427257,85
1767759840,6171.591281890869,11427261,85
1767759840,6183.226903279622,11427296,85
1767759840,6189.044713973999,11427302,85
1767759840,6202.411254247029,11427310,85
1767759840,6221.836010615031,11427315,85
1767759840,6242.270469665527,11427320,85
1767759840,6207.555929819743,11427353,85
1767759840,6189.717849095662,11427356,85
1767759840,6182.265281677246,11427365,85
1767759840,6185.823281606038,11427366,85
1767759840,6196.689605712891,11427372,85
1767759840,6207.6520919799805,11427383,85
1767759840,6165.05225499471,11427401,85
1767759840,6146.204471588135,11427413,85
1767759840,6137.309471766154,11427412,85
1767759840,6181.495984395345,11427452,85
1767759840,6164.811849594116,11427458,85
1767759840,6153.128147125244,11427463,85
1767759840,6151.541471481323,11427468,85
1767759840,6160.147984822591,11427473,85
1767759840,6174.139579137166,11427478,85
1767759840,6179.428497950236,11427492,85
1767759840,6163.561741511027,11427499,85
1767759840,6151.3010660807295,11427502,85
1767759840,6155.291795730591,11427504,85
1767759840,6184.957822163899,11427512,85
1767759840,6241.453091303508,11427517,85
1767759840,6315.690279006958,11427519,85
1767759840,6389.735142389934,11427523,85
1767759840,6363.1463050842285,11427542,79
1767759840,6273.7635771433515,11427542,79
1767759840,6184.380849202474,11427547,79
1767759840,6114.567120869954,11427552,79
1767759840,6075.621445973714,11427554,79
1767759840,6120.000282923381,11427568,79
1767759840,6112.114985783895,11427574,79
1767759840,6100.383202234904,11427576,79
1767759840,6094.132661819458,11427575,79
1767759840,6100.335121154785,11427580,79
1767759840,6120.769580205281,11427576,79
1767759840,6221.836010615031,11427583,79
1767759840,6209.190686543782,11427580,79
1767759840,6190.967957178752,11427579,79
1767759840,6173.99533589681,11427579,79
1767759840,6163.705984751384,11427579,79
1767759840,6197.891632715861,11427565,79
1767759840,6197.699308395386,11427566,79
1767759840,6191.160281499227,11427562,79
1767759840,6180.582443873088,11427557,79
1767759840,6170.052687327067,11427555,79
1767759840,6163.465579350789,11427550,79
1767759840,6163.03284962972,11427549,79
1767759840,6216.787497202556,11427510,79
1767759840,6217.941443125407,11427510,79
1767759840,6219.383875528972,11427502,79
1767759840,6221.643686294556,11427497,79
1767759840,6223.951578140259,11427489,79
1767759840,6229.096253712972,11427476,79
1767759840,6231.548388799031,11427473,79
1767759840,6235.442956288655,11427468,79
1767759840,6240.251064300537,11427467,79
1767759840,6244.9149290720625,11427463,79
1767759840,6247.84787495931,11427458,79
1767759840,6243.424415588379,11427449,79
1767759840,6250.492334365845,11427445,79
1767759840,6259.675820668538,11427447,79
1767759840,6266.647577285767,11427448,79
1767759840,6267.368793487549,11427447,79
1767759840,6186.063687006633,11427455,79
1767759840,6178.563038508098,11427460,79
1767759840,6177.697579065959,11427465,79
1767759840,6179.524660110474,11427467,79
1767759840,6179.332335789998,11427471,79
1767759840,6173.754930496216,11427475,79
1767759840,6133.8476339976,11427504,79
1767759840,6145.002444585164,11427511,79
1767759840,6160.436471303304,11427516,79
1767759840,6175.245443979899,11427524,79
1767759840,6185.342470804851,11427534,79
1767759840,6180.390119552612,11427569,79
1767759840,6181.063254674275,11427580,79
1767759840,6182.0729573567705,11427586,79
1767759840,6181.4479033152265,11427595,79
1767759840,6178.418795267741,11427600,79
1767759840,6174.187660217285,11427611,79
1767759840,6202.459335327148,11427652,79
1767759840,6213.902632395427,11427660,79
1767759840,6220.393578211467,11427667,79
1767759840,6220.489740371704,11427674,79
1767759840,6206.930875778198,11427690,79
1767759841,6199.670632680257,11427700,79
1767759841,6195.872227350871,11427702,79
1767759841,6195.776065190633,11427710,79
1767759841,6197.843551635742,11427720,79
1767759841,6191.689173380534,11427740,79
1767759841,6183.130741119385,11427752,79
1767759841,6174.379984537761,11427757,79
1767759841,6169.187227884929,11427767,79
1767759841,6169.7642008463545,11427774,79
1767759841,6213.710308074951,11427805,79
1767759841,6220.489740371704,11427812,79
1767759841,6221.595605214437,11427824,79
1767759841,6217.845280965169,11427835,79
1767759841,6210.969686508179,11427840,79
1767759841,6203.22863260905,11427845,79
1767759841,6196.449200312297,11427856,79
1767759841,6191.4487679799395,11427865,79
1767759841,6188.131173451741,11427872,79
1767759841,6185.919443766276,11427883,79
1767759841,6183.948119481404,11427891,79
1767759841,6182.024876276652,11427902,79
1767759841,6180.1497141520185,11427909,79
1767759841,6178.899606068929,11427916,79
1767759841,6178.803443908691,11427930,79
1767759841,6180.390119552612,11427938,79
1767759841,6204.286416371663,11427991,79
1767759841,6203.99792989095,11428002,79
1767759841,6200.247605641683,11428014,79
1767759841,6194.141308466594,11428024,79
1767759841,6187.698443730672,11428037,79
1767759841,6183.178822199504,11428058,79
1767759841,6187.746524810791,11428071,79
1767759841,6195.727984110515,11428081,79
1767759841,6204.382578531901,11428092,79
1767759841,6210.536956787109,11428107,79
1767759841,6198.420524597168,11428149,79
1767759841,6195.583740870158,11428162,79
1767759841,6196.9780921936035,11428175,79
1767759841,6201.786200205485,11428184,79
1767759841,6207.748254140218,11428196,79
1767759841,6211.690902709961,11428204,79
1767759841,6211.354335149129,11428215,79
1767759841,6206.257740656535,11428229,79
1767759841,6197.9397137959795,11428239,79
1767759841,6188.61198425293,11428249,79
1767759841,6180.630524953206,11428260,79
1767759841,6174.572308858235,11428312,79
1767759841,6178.322633107503,11428322,79
1767759841,6183.900038401286,11428335,79
1767759841,6190.439065297444,11428344,79
1767759841,6196.112632751465,11428350,79
1767759841,6197.987794876099,11428360,79
1767759841,6159.571011861165,11428398,79
1767759841,6152.503093083699,11428408,79
1767759841,6152.406930923462,11428416,79
1767759841,6158.17666053772,11428424,79
1767759841,6172.9856332143145,11428449,79
1767759841,6171.591281890869,11428458,79
1767759841,6173.706849416097,11428467,79
1767759841,6187.073389689128,11428473,79
1767759841,6217.0759836832685,11428480,79
1767759841,6366.175413131714,11428496,79
1767759841,6395.072142283122,11428508,79
1767759841,6393.629709879558,11428514,79
1767759841,6359.636386235555,11428523,79
1767759841,6300.256252288818,11428529,79
1767759841,6229.865550994873,11428535,79
1767759841,6164.28295771281,11428541,79
1767759841,6115.769147872925,11428547,79
1767759841,6089.1322294871015,11428549,79
1767759841,6110.384066899617,11428572,79
1767759841,6117.500066757202,11428575,79
1767759841,6128.366390864055,11428578,79
1767759841,6143.800417582194,11428581,79
1767759841,6161.109606424968,11428581,79
1767759841,6144.425471623738,11428583,79
1767759841,6146.204471588135,11428584,79
1767759841,6158.994038899739,11428583,79
1767759841,6179.66890335083,11428581,79
1767759841,6202.026605606079,11428578,79
1767759841,6219.720443089803,11428574,79
1767759841,6227.605740229289,11428565,79
1767759841,6219.43195660909,11428564,79
1767759841,6207.507848739624,11428555,79
1767759841,6195.054848988851,11428551,79
1767759841,6184.14044380188,11428546,79
1767759841,6179.428497950236,11428499,79
1767759841,6189.044713973999,11428493,79
1767759841,6198.035875956218,11428486,79
1767759841,6204.142173131307,11428477,79
1767759841,6206.161578496297,11428465,79
1767759841,6205.63268661499,11428459,79
1767759841,6251.742442448934,11428412,79
1767759841,6264.6762530008955,11428406,79
1767759841,6268.907388051351,11428394,79
1767759841,6262.512604395549,11428390,79
1767759841,6247.607469558716,11428380,79
1767759841,6229.6732266743975,11428372,79
1767759841,6215.585470199585,11428363,79
1767759841,6241.260766983032,11428336,79
1767759841,6251.213550567627,11428333,79
1767759841,6253.6656856536865,11428328,79
1767759841,6248.232523600261,11428322,79
1767759841,6238.327821095784,11428322,79
1767759841,6222.989956537883,11428311,79
1767759841,6227.0768483479815,11428309,79
1767759841,6230.490605036418,11428306,79
1767759841,6229.288578033447,11428307,79
1767759841,6220.537821451823,11428306,79
1767759841,6204.382578531901,11428305,79
1767759841,6183.32306543986,11428307,79
1767759841,6162.023146947225,11428309,79
1767759841,6144.713958104451,11428311,79
1767759841,6135.0977420806885,11428308,79
1767759841,6133.8476339976,11428314,79
1767759841,6139.809687932332,11428318,79
1767759841,6150.147120157878,11428322,79
1767759841,6161.301930745442,11428326,79
1767759841,6170.3892548878985,11428326,79
1767759841,6175.245443979899,11428333,79
1767759841,6175.101200739543,11428337,79
1767759841,6170.821984608968,11428340,79
1767759841,6164.619525273641,11428344,79
1767759841,6159.619092941284,11428349,79
1767759841,6158.705552419026,11428358,79
1767759841,6201.930443445842,11428379,79
1767759841,6209.9119027455645,11428385,79
1767759841,6209.238767623901,11428391,79
1767759841,6199.5263894399,11428396,79
1767759841,6183.851957321167,11428401,79
1767759841,6167.648633321126,11428403,79
1767759841,6157.166957855225,11428409,79
1767759841,6156.830390294393,11428417,79
1767759841,6167.648633321126,11428422,79
1767759841,6186.9291464487715,11428429,79
1767759841,6226.788361867269,11428438,79
1767759841,6235.68336168925,11428443,79
1767759841,6233.760118484497,11428449,79
1767759841,6223.038037618001,11428451,79
1767759841,6208.421389261882,11428457,79
1767759841,6186.688741048177,11428470,79
1767759841,6191.689173380534,11428474,79
1767759841,6199.622551600139,11428477,79
1767759841,6207.075119018555,11428481,79
1767759841,6211.450497309367,11428483,79
1767759841,6191.737254460652,11428505,79
1767759841,6187.217632929484,11428508,79
1767759841,6184.188524881999,11428508,79
1767759841,6182.938416798909,11428514,79
1767759841,6183.3711465199785,11428517,79
1767759841,6183.611551920573,11428534,79
1767759841,6177.937984466553,11428537,79
1767759841,6172.072092692058,11428540,79
1767759841,6168.70641708374,11428547,79
1767759841,6177.601416905721,11428557,79
1767759841,6189.1889572143555,11428559,79
1767759841,6201.641956965129,11428564,79
1767759841,6211.113929748535,11428569,79
1767759841,6214.287281036377,11428570,79
1767759841,6165.533065795898,11428597,79
1767759841,6165.340741475423,11428599,79
1767759841,6171.54320081075,11428602,79
1767759841,6182.0729573567705,11428607,79
1767759841,6194.237470626831,11428612,79
1767759841,6225.53825378418,11428636,79
1767759841,6220.874389012654,11428641,79
1767759841,6211.498578389485,11428643,79
1767759841,6198.228200276692,11428648,79
1767759841,6183.419227600098,11428653,79
1767759841,6170.629660288493,11428657,79
1767759841,6208.373308181763,11428684,79
1767759841,6202.218929926555,11428687,79
1767759841,6192.1219031016035,11428691,79
1767759841,6182.457605997722,11428695,79
1767759842,6176.495552062988,11428701,79
1767759842,6180.678606033325,11428707,79
1767759842,6181.976795196533,11428710,79
1767759842,6181.30366007487,11428712,79
1767759842,6179.909308751424,11428713,79
1767759842,6180.005470911662,11428718,79
1767759842,6183.082660039266,11428718,79
1767759842,6188.275416692098,11428720,79
1767759842,6193.179686864217,11428721,79
1767759842,6194.7182814280195,11428723,79
1767759842,6183.467308680217,11428726,79
1767759842,6191.929578781128,11428729,79
1767759842,6216.018199920654,11428727,79
1767759842,6254.723469416301,11428729,79
1767759842,6300.256252288818,11428726,79
1767759842,6339.634656906128,11428726,79
1767759842,6358.963251113892,11428726,79
1767759842,6349.106629689534,11428725,81
1767759842,6093.459526697795,11428714,81
1767759842,6083.218256632487,11428712,81
1767759842,6090.526580810547,11428711,81
1767759842,6104.518175125122,11428708,81
1767759842,6114.855607350667,11428700,81
1767759842,6102.883418401082,11428692,81
1767759842,6102.691094080607,11428680,81
1767759842,6114.32671546936,11428678,81
1767759842,6137.020985285441,11428672,81
1767759842,6165.100336074829,11428664,81
1767759842,6206.930875778198,11428630,81
1767759842,6199.2379029591875,11428623,81
1767759842,6192.987362543742,11428615,81
1767759842,6190.24674097697,11428604,81
1767759842,6190.1505788167315,11428594,81
1767759842,6189.092795054118,11428583,81
1767759842,6184.236605962117,11428569,81
1767759842,6175.005038579305,11428560,81
1767759842,6164.427200953166,11428545,81
1767759842,6166.735092798869,11428501,81
1767759842,6181.544065475464,11428488,81
1767759842,6196.353038152059,11428474,81
1767759842,6205.536524454753,11428458,81
1767759842,6206.01733525594,11428444,81
1767759842,6199.14174079895,11428428,81
1767759842,6189.765930175781,11428411,81
1767759842,6184.52509244283,11428391,81
1767759842,6188.083092371623,11428377,81
1767759842,6236.0680103302,11428322,81
1767759842,6245.155334472656,11428308,81
1767759842,6243.760983149211,11428288,81
1767759842,6233.9043617248535,11428270,81
1767759842,6221.403280893962,11428254,81
1767759842,6213.037172953288,11428240,81
1767759842,6238.952875137329,11428187,81
1767759842,6252.992550532023,11428166,81
1767759842,6259.62773958842,11428150,81
1767759842,6256.213982899983,11428133,81
1767759842,6245.251496632894,11428119,81
1767759842,6232.461929321289,11428103,81
1767759842,6224.528551101685,11428089,81
1767759842,6225.7786591847735,11428074,81
1767759842,6236.260334650676,11428057,81
1767759842,6267.513036727905,11428014,81
1767759842,6259.002685546875,11428001,81
1767759842,6240.395307540894,11427987,81
1767759842,6217.797199885051,11427975,81
1767759842,6198.853254318237,11427967,81
1767759842,6188.756227493286,11427951,81
1767759842,6188.804308573405,11427940,81
1767759842,6195.439497629802,11427929,81
1767759842,6201.930443445842,11427915,81
1767759842,6174.139579137166,11427890,81
1767759842,6152.647336324056,11427879,81
1767759842,6135.770877202352,11427872,81
1767759842,6129.135688145955,11427863,81
1767759842,6134.520769119263,11427857,81
1767759842,6148.512363433838,11427850,81
1767759842,6164.23487663269,11427843,81
1767759842,6174.476146697998,11427837,81
1767759842,6174.428065617879,11427829,81
1767759842,6164.090633392334,11427824,81
1767759842,6129.664580027263,11427808,81
1767759842,6137.88644472758,11427805,81
1767759842,6157.4554443359375,11427799,81
1767759842,6182.265281677246,11427796,81
1767759842,6204.526821772258,11427788,81
1767759842,6207.892497380574,11427780,81
1767759842,6192.458470662435,11427775,81
1767759842,6178.5149574279785,11427771,81
1767759842,6171.54320081075,11427767,81
1767759842,6173.56260617574,11427763,81
1767759842,6208.6137135823565,11427751,81
1767759842,6203.949848810832,11427746,81
1767759842,6198.564767837524,11427741,81
1767759842,6194.958686828613,11427739,81
1767759842,6193.900903065999,11427736,81
1767759842,6179.620822270711,11427721,81
1767759842,6175.389687220256,11427716,81
1767759842,6175.678173700969,11427716,81
1767759842,6181.351741154988,11427716,81
1767759842,6201.497713724772,11427709,81
1767759842,6209.190686543782,11427707,81
1767759842,6211.642821629842,11427702,81
1767759842,6208.806037902832,11427703,81
1767759842,6202.940146128337,11427698,81
1767759842,6198.2762813568115,11427691,81
1767759842,6203.324794769287,11427694,81
1767759842,6207.555929819743,11427688,81
1767759842,6207.411686579387,11427684,81
1767759842,6201.401551564534,11427685,81
1767759842,6190.198659896851,11427686,81
1767759842,6177.2167682647705,11427682,81
1767759842,6166.879336039226,11427683,81
1767759842,6197.843551635742,11427676,81
1767759842,6201.738119125366,11427677,81
1767759842,6199.334065119426,11427679,81
1767759842,6192.362308502197,11427676,81
1767759842,6177.64949798584,11427683,81
1767759842,6211.498578389485,11427688,81
1767759842,6215.393145879109,11427685,81
1767759842,6216.547091801961,11427687,81
1767759842,6215.729713439941,11427687,81
1767759842,6213.854551315308,11427691,81
1767759842,6211.113929748535,11427695,81
1767759842,6212.075551350911,11427697,81
1767759842,6213.1814161936445,11427702,81
1767759842,6213.373740514119,11427702,81
1767759842,6211.5466594696045,11427704,81
1767759842,6177.072525024414,11427714,81
1767759842,6169.52379544576,11427719,81
1767759842,6167.360146840413,11427717,81
1767759842,6171.110471089681,11427722,81
1767759842,6179.380416870117,11427724,81
1767759842,6188.61198425293,11427727,81
1767759842,6194.622119267781,11427727,81
1767759842,6193.46817334493,11427731,81
1767759842,6183.707714080811,11427729,81
1767759842,6167.119741439819,11427731,81
1767759842,6148.704687754313,11427732,81
1767759842,6134.953498840332,11427733,81
1767759842,6131.010850270589,11427737,81
1767759842,6139.08847173055,11427740,81
1767759842,6156.782309214274,11427739,81
1767759842,6177.889903386434,11427740,81
1767759842,6194.477876027425,11427737,81
1767759842,6200.103362401326,11427742,81
1767759842,6192.987362543742,11427745,81
1767759842,6177.2167682647705,11427743,81
1767759842,6217.364470163981,11427742,81
1767759842,6273.859739303589,11427741,81
1767759842,6333.432197570801,11427743,81
1767759842,6379.830439885457,11427742,81
1767759842,6273.81165822347,11427734,80
1767759842,6203.901767730713,11427731,80
1767759842,6144.569714864095,11427729,80
1767759842,6105.287472407023,11427727,80
1767759842,6088.074445724487,11427724,80
1767759842,6088.507175445557,11427723,80
1767759842,6098.363796869914,11427717,80
1767759842,6109.374364217122,11427711,80
1767759842,6116.490364074707,11427709,80
1767759842,6119.2309856414795,11427704,80
1767759842,6120.240688323975,11427697,80
1767759842,6123.4621206919355,11427693,80
1767759842,6180.967092514038,11427659,80
1767759842,6185.679038365682,11427650,80
1767759842,6187.265714009603,11427643,80
1767759842,6188.035011291504,11427633,80
1767759842,6190.294822057088,11427627,80
1767759842,6194.766362508138,11427617,80
1767759842,6200.247605641683,11427608,80
1767759842,6203.99792989095,11427597,80
1767759842,6203.661362330119,11427582,80
1767759842,6197.987794876099,11427571,80
1767759842,6161.638498306274,11427511,80
1767759842,6169.571876525879,11427497,80
1767759842,6181.976795196533,11427484,80
1767759843,6195.583740870158,11427470,80
1767759843,6207.027037938436,11427454,80
1767759843,6213.950713475545,11427437,80
1767759843,6215.489308039348,11427423,80
1767759843,6212.412118911743,11427411,80
1767759843,6195.6799030303955,11427332,80
1767759843,6201.738119125366,11427317,80
1767759843,6209.671497344971,11427299,80
1767759843,6217.893362045288,11427288,80
1767759843,6224.768956502278,11427270,80
1767759843,6232.798496882121,11427194,80
1767759843,6234.2409292856855,11427181,80
1767759843,6236.45265897115,11427164,80
1767759843,6238.90479405721,11427154,80
1767759843,6240.9241994222,11427141,80
1767759843,6242.462793986003,11427129,80
1767759843,6243.37633450826,11427117,80
1767759843,6215.825875600179,11427043,80
1767759843,6199.334065119426,11427033,80
1767759843,6157.599687576294,11427014,80
1767759843,6154.907147089641,11427005,80
1767759843,6158.7536334991455,11426999,80
1767759843,6167.0716603597,11426998,80
1767759843,6176.447470982869,11426989,80
1767759843,6183.515389760335,11426987,80
1767759843,6186.015605926514,11426982,80
1767759843,6183.563470840454,11426978,80
1767759843,6177.5533358256025,11426975,80
1767759843,6170.245011647542,11426974,80
1767759843,6163.561741511027,11426973,80
1767759843,6159.0902010599775,11426967,80
1767759843,6171.831687291463,11426961,80
1767759843,6175.389687220256,11426960,80
1767759843,6177.64949798584,11426959,80
1767759843,6177.889903386434,11426962,80
1767759843,6175.774335861206,11426960,80
1767759843,6180.390119552612,11426962,80
1767759843,6191.256443659465,11426960,80
1767759843,6202.074686686198,11426959,80
1767759843,6209.9119027455645,11426959,80
1767759843,6212.364037831624,11426958,80
1767759843,6195.151011149089,11426962,80
1767759843,6190.583308537801,11426963,80
1767759843,6190.342903137207,11426960,80
1767759843,6193.948984146118,11426961,80
1767759843,6199.334065119426,11426959,80
1767759843,6205.488443374634,11426961,80
1767759843,6203.757524490356,11426963,80
1767759843,6199.95911916097,11426963,80
1767759843,6196.160713831584,11426963,80
1767759843,6194.28555170695,11426962,80
1767759843,6195.920308430989,11426965,80
1767759843,6195.872227350871,11426966,80
1767759843,6192.65079498291,11426968,80
1767759843,6186.063687006633,11426969,80
1767759843,6177.841822306315,11426968,80
1767759843,6171.110471089681,11426971,80
1767759843,6169.331471125285,11426968,80
1767759843,6174.860795338948,11426972,80
1767759843,6187.506119410197,11426974,80
1767759843,6204.238335291545,11426978,80
1767759843,6231.500307718913,11426981,80
1767759843,6234.096686045329,11426984,80
1767759843,6228.086551030477,11426988,80
1767759843,6215.729713439941,11426993,80
1767759843,6201.20922724406,11426992,80
1767759843,6188.948551813762,11426994,80
1767759843,6181.928714116414,11427001,80
1767759843,6180.967092514038,11427004,80
1767759843,6183.996200561523,11427008,80
1767759843,6187.361876169841,11427013,80
1767759843,6187.506119410197,11427016,80
1767759843,6182.313362757365,11427019,80
1767759843,6149.762471516927,11427042,80
1767759843,6157.551606496175,11427049,80
1767759843,6173.803011576335,11427054,80
1767759843,6193.900903065999,11427061,80
1767759843,6210.825443267822,11427068,80
1767759843,6218.181848526001,11427074,80
1767759843,6212.700605392456,11427080,80
1767759843,6195.631821950276,11427086,80
1767759843,6173.033714294434,11427096,80
1767759843,6155.099471410115,11427113,80
1767759843,6179.765065511067,11427120,80
1767759843,6213.277578353882,11427128,80
1767759843,6245.0110912323,11427136,80
1767759843,6265.108982721965,11427143,80
1767759843,6267.416874567668,11427147,80
1767759843,6252.3674964904785,11427159,80
1767759843,6226.163307825725,11427166,80
1767759843,6198.372443517049,11427169,80
1767759843,6174.187660217285,11427184,80
1767759843,6184.621254603068,11427196,80
1767759843,6193.756659825643,11427202,80
1767759843,6195.727984110515,11427207,80
1767759843,6188.756227493286,11427215,80
1767759843,6175.63009262085,11427220,80
1767759843,6161.975065867106,11427225,80
1767759843,6153.272390365601,11427233,80
1767759843,6152.118444442749,11427238,80
1767759843,6157.407363255818,11427242,80
1767759843,6172.3605791727705,11427261,80
1767759843,6169.956525166829,11427264,80
1767759843,6167.408227920532,11427267,80
1767759843,6168.562173843384,11427272,80
1767759843,6175.053119659424,11427278,80
1767759843,6184.669335683187,11427283,80
1767759843,6194.141308466594,11427292,80
1767759843,6187.361876169841,11427297,80
1767759843,6175.870498021443,11427300,80
1767759843,6167.937119801839,11427304,80
1767759843,6173.514525095622,11427307,80
1767759843,6399.687925974528,11427322,80
1767759843,6404.88068262736,11427325,80
1767759843,6375.406980514526,11427329,78
1767759843,6318.238576253255,11427333,78
1767759843,6247.992118199666,11427333,78
1767759843,6181.495984395345,11427336,78
1767759843,6131.732066472371,11427336,78
1767759843,6104.614337285359,11427337,78
1767759843,6097.69066174825,11427340,78
1767759843,6103.0276616414385,11427341,78
1767759843,6111.345688501994,11427344,78
1767759843,6118.702093760173,11427345,78
1767759843,6126.298904418945,11427341,78
1767759843,6139.761606852214,11427342,78
1767759843,6155.964930852254,11427341,78
1767759843,6170.581579208374,11427337,78
1767759843,6180.870930353801,11427332,78
1767759843,6178.226470947266,11427327,78
1767759843,6177.793741226196,11427325,78
1767759843,6180.630524953206,11427318,78
1767759843,6185.390551884969,11427314,78
1767759843,6175.678173700969,11427292,78
1767759843,6166.68701171875,11427286,78
1767759843,6161.157687505086,11427275,78
1767759843,6161.782741546631,11427271,78
1767759843,6168.754498163859,11427261,78
1767759843,6179.909308751424,11427255,78
1767759843,6191.641092300415,11427244,78
1767759843,6200.439929962158,11427236,78
1767759843,6202.218929926555,11427216,78
1767759843,6196.30495707194,11427204,78
1767759843,6188.948551813762,11427194,78
1767759843,6183.082660039266,11427187,78
1767759843,6180.7747681935625,11427175,78
1767759843,6182.986497879028,11427164,78
1767759843,6189.669768015544,11427150,78
1767759843,6199.5744705200195,11427136,78
1767759843,6211.306254069011,11427128,78
1767759843,6252.7040640513105,11427069,78
1767759843,6253.6656856536865,11427060,78
1767759843,6252.223253250122,11427046,78
1767759843,6248.617172241211,11427035,78
1767759843,6242.94360478719,11427025,78
1767759843,6235.587199529012,11427014,78
1767759843,6214.57576751709,11426982,78
1767759843,6212.5082810719805,11426976,78
1767759843,6214.335362116496,11426965,78
1767759843,6219.624280929565,11426956,78
1767759843,6226.403713226318,11426949,78
1767759843,6232.221523920695,11426942,78
1767759843,6234.673659006755,11426935,78
1767759843,6232.798496882121,11426926,78
1767759843,6227.0768483479815,11426919,78
1767759843,6219.43195660909,11426915,78
1767759843,6211.835145950317,11426907,78
1767759843,6205.825010935466,11426903,78
1767759843,6201.401551564534,11426896,78
1767759843,6197.170416514079,11426894,78
1767759843,6191.01603825887,11426892,78
1767759843,6181.399822235107,11426885,78
1767759843,6142.165660858154,11426879,78
1767759843,6136.203606923421,11426881,78
1767759843,6137.934525807698,11426876,78
1767759843,6146.733363469441,11426876,78
1767759843,6159.619092941284,11426875,78
1767759843,6172.456741333008,11426874,78
1767759843,6181.495984395345,11426876,78
1767759843,6184.957822163899,11426874,78
1767759843,6183.178822199504,11426876,78
1767759843,6174.764633178711,11426880,78
1767759843,6178.322633107503,11426880,78
1767759843,6181.832551956177,11426885,78
1767759843,6183.75579516093,11426884,78
1767759843,6183.419227600098,11426888,78
1767759843,6181.4479033152265,11426891,78
1767759843,6179.332335789998,11426890,78
1767759843,6178.370714187622,11426889,78
1767759843,6179.28425470988,11426896,78
1767759843,6187.265714009603,11426901,78
1767759843,6188.99663289388,11426905,78
1767759843,6190.294822057088,11426904,78
1767759843,6191.881497701009,11426909,78
1767759843,6193.804740905762,11426913,78
1767759843,6195.872227350871,11426914,78
1767759844,6197.12233543396,11426916,78
1767759844,6196.73768679301,11426916,78
1767759844,6194.766362508138,11426922,78
1767759844,6191.881497701009,11426923,78
1767759844,6189.717849095662,11426927,78
1767759844,6190.24674097697,11426926,78
1767759844,6194.3817138671875,11426932,78
1767759844,6201.641956965129,11426931,78
1767759844,6209.863821665446,11426933,78
1767759844,6216.114362080892,11426939,78
1767759844,6202.218929926555,11426949,78
1767759844,6197.12233543396,11426949,78
1767759844,6195.6799030303955,11426955,78
1767759844,6197.651227315267,11426957,78
1767759844,6200.968821843465,11426957,78
1767759844,6202.459335327148,11426963,78
1767759844,6199.670632680257,11426964,78
1767759844,6192.1219031016035,11426968,78
1767759844,6181.640227635701,11426968,78
1767759844,6171.735525131226,11426974,78
1767759844,6165.86963335673,11426974,78
1767759844,6166.350444157918,11426979,78
1767759844,6173.033714294434,11426981,78
1767759844,6183.659633000691,11426984,78
1767759844,6194.333632787068,11426989,78
1767759844,6166.110038757324,11427014,78
1767759844,6170.870065689087,11427017,78
1767759844,6179.909308751424,11427020,78
1767759844,6190.198659896851,11427024,78
1767759844,6198.228200276692,11427026,78
1767759844,6201.449632644653,11427033,78
1767759844,6199.093659718831,11427038,78
1767759844,6176.784038543701,11427056,78
1767759844,6183.274984359741,11427061,78
1767759844,6192.169984181722,11427067,78
1767759844,6200.8726596832275,11427067,78
1767759844,6207.555929819743,11427070,78
1767759844,6211.73898379008,11427074,78
1767759844,6213.902632395427,11427076,78
1767759844,6215.393145879109,11427080,78
1767759844,6218.518416086833,11427093,78
1767759844,6218.662659327189,11427092,78
1767759844,6216.066281000773,11427098,78
1767759844,6210.008064905803,11427099,78
1767759844,6201.064984003703,11427101,78
1767759844,6191.400686899821,11427104,78
1767759844,6184.092362721761,11427105,78
1767759844,6206.738551457723,11427118,78
1767759844,6206.642389297485,11427124,78
1767759844,6201.257308324178,11427125,78
1767759844,6192.458470662435,11427125,78
1767759844,6183.178822199504,11427129,78
1767759844,6161.878903706868,11427137,78
1767759844,6155.964930852254,11427141,78
1767759844,6150.099039077759,11427142,78
1767759844,6147.358417510986,11427146,78
1767759844,6150.627930959065,11427146,78
1767759844,6160.3883902231855,11427147,78
1767759844,6173.754930496216,11427149,78
1767759844,6185.198227564494,11427149,78
1767759844,6188.948551813762,11427151,78
1767759844,6168.802579243978,11427157,78
1767759844,6156.686147054036,11427159,78
1767759844,6157.74393081665,11427157,78
1767759844,6181.015173594157,11427157,78
1767759844,6228.567361831665,11427159,78
1767759844,6386.946439743042,11427164,77
1767759844,6326.748927434285,11427167,77
1767759844,6249.242226282756,11427168,77
1767759844,6173.466444015503,11427168,77
1767759844,6115.3364181518555,11427170,77
1767759844,6082.208553949992,11427169,77
1767759844,6094.276905059814,11427171,77
1767759844,6099.950472513835,11427168,77
1767759844,6112.836201985677,11427165,77
1767759844,6135.530471801758,11427165,77
1767759844,6165.004173914592,11427162,77
1767759844,6193.708578745524,11427163,77
1767759844,6212.219794591268,11427158,77
1767759844,6213.950713475545,11427154,77
1767759844,6130.481958389282,11427135,77
1767759844,6147.454579671224,11427132,77
1767759844,6173.6587683359785,11427126,77
1767759844,6199.2379029591875,11427120,77
1767759844,6214.864253997803,11427114,77
1767759844,6162.792444229126,11427076,77
1767759844,6168.32176844279,11427071,77
1767759844,6183.3711465199785,11427057,77
1767759844,6201.59387588501,11427048,77
1767759844,6215.825875600179,11427042,77
1767759844,6220.585902531941,11427029,77
1767759844,6214.431524276733,11427020,77
1767759844,6186.736822128296,11426967,77
1767759844,6204.334497451782,11426960,77
1767759844,6223.134199778239,11426944,77
1767759844,6237.366199493408,11426936,77
1767759844,6243.328253428142,11426928,77
1767759844,6232.654253641765,11426872,77
1767759844,6243.520577748616,11426866,77
1767759844,6255.204280217488,11426854,77
1767759844,6263.281901677449,11426846,77
1767759844,6264.532009760539,11426833,77
1767759844,6258.954604466756,11426828,77
1767759844,6239.385604858398,11426811,77
1767759844,6233.23122660319,11426802,77
1767759844,6231.692632039388,11426798,77
1767759844,6230.682929356893,11426780,77
1767759844,6221.739848454793,11426773,77
1767759844,6208.6137135823565,11426771,77
1767759844,6194.814443588257,11426766,77
1767759844,6188.323497772217,11426753,77
1767759844,6192.314227422078,11426756,77
1767759844,6191.256443659465,11426754,77
1767759844,6184.044281641643,11426755,77
1767759844,6172.889471054077,11426753,77
1767759844,6167.312065760295,11426763,77
1767759844,6172.264417012532,11426764,77
1767759844,6171.591281890869,11426769,77
1767759844,6165.004173914592,11426769,77
1767759844,6155.291795730591,11426776,77
1767759844,6147.262255350749,11426779,77
1767759844,6145.387093226115,11426786,77
1767759844,6151.397228240967,11426791,77
1767759844,6163.369417190552,11426790,77
1767759844,6176.976362864177,11426794,77
1767759844,6187.217632929484,11426798,77
1767759844,6190.967957178752,11426804,77
1767759844,6187.842686971028,11426812,77
1767759844,6181.063254674275,11426812,77
1767759844,6206.594308217366,11426842,77
1767759844,6215.4412269592285,11426844,77
1767759844,6217.845280965169,11426852,77
1767759844,6214.1430377960205,11426854,77
1767759844,6207.507848739624,11426862,77
1767759844,6201.690038045247,11426865,77
1767759844,6199.9110380808515,11426872,77
1767759844,6202.603578567505,11426872,77
1767759844,6207.027037938436,11426881,77
1767759844,6209.094524383545,11426885,77
1767759844,6205.344200134277,11426891,77
1767759844,6162.840525309245,11426912,77
1767759844,6173.56260617574,11426915,77
1767759844,6188.948551813762,11426921,77
1767759844,6203.757524490356,11426924,77
1767759844,6212.94101079305,11426930,77
1767759844,6214.383443196614,11426934,77
1767759844,6209.142605463664,11426937,77
1767759844,6200.824578603108,11426946,77
1767759844,6199.093659718831,11426964,77
1767759844,6201.016902923584,11426973,77
1767759844,6200.151443481445,11426974,77
1767759844,6197.170416514079,11426981,77
1767759844,6193.756659825643,11426984,77
1767759844,6190.919876098633,11426993,77
1767759844,6186.9291464487715,11427003,77
1767759844,6183.515389760335,11427008,77
1767759844,6178.1783898671465,11427011,77
1767759844,6171.447038650513,11427019,77
1767759844,6165.436903635661,11427023,77
1767759844,6162.3116334279375,11427033,77
1767759844,6163.705984751384,11427036,77
1767759844,6169.908444086711,11427040,77
1767759844,6179.957389831543,11427050,77
1767759844,6191.400686899821,11427056,77
1767759844,6201.545794804891,11427063,77
1767759844,6208.229064941406,11427069,77
1767759844,6210.296551386516,11427073,77
1767759844,6207.892497380574,11427081,77
1767759844,6201.97852452596,11427088,77
1767759844,6193.900903065999,11427096,77
1767759844,6171.591281890869,11427124,77
1767759844,6174.331903457642,11427134,77
1767759844,6180.1497141520185,11427139,77
1767759845,6187.554200490315,11427145,77
1767759845,6194.525957107544,11427155,77
1767759845,6199.766794840495,11427160,77
1767759845,6202.843983968099,11427171,77
1767759845,6204.574902852376,11427175,77
1767759845,6225.394010543823,11427205,77
1767759845,6232.2696050008135,11427215,77
1767759845,6235.106388727824,11427220,77
1767759845,6231.59646987915,11427230,77
1767759845,6221.45136197408,11427235,77
1767759845,6170.245011647542,11427259,77
1767759845,6156.205336252849,11427267,77
1767759845,6147.791147232056,11427269,77
1767759845,6145.915985107422,11427277,77
1767759845,6150.483687718709,11427284,77
1767759845,6160.58071454366,11427291,77
1767759845,6174.091498057048,11427299,77
1767759845,6187.746524810791,11427304,77
1767759845,6197.50698407491,11427309,77
1767759845,6191.593011220296,11427320,77
1767759845,6175.5820115407305,11427328,77
1767759845,6156.4938227335615,11427334,77
1767759845,6141.829093297322,11427337,77
1767759845,6138.27109336853,11427345,77
1767759845,6208.277146021525,11427374,77
1767759845,6188.083092371623,11427378,77
1767759845,6157.551606496175,11427381,77
1767759845,6132.405201594035,11427388,77
1767759845,6129.808823267619,11427396,77
1767759845,6161.061525344849,11427400,77
1767759845,6467.193762461345,11427421,77
1767759845,6431.084871292114,11427424,76
1767759845,6109.807093938191,11427436,76
1767759845,6075.813770294189,11427440,76
1767759845,6068.6977704366045,11427443,76
1767759845,6077.208121617635,11427445,76
1767759845,6088.603337605794,11427450,76
1767759845,6089.276472727458,11427456,76
1767759845,6099.950472513835,11427455,76
1767759845,6120.913823445638,11427455,76
1767759845,6147.694985071818,11427458,76
1767759845,6173.033714294434,11427454,76
1767759845,6190.24674097697,11427454,76
1767759845,6196.256875991821,11427455,76
1767759845,6192.1219031016035,11427453,76
1767759845,6182.794173558553,11427453,76
1767759845,6173.899173736572,11427446,76
1767759845,6190.967957178752,11427429,76
1767759845,6193.227767944336,11427427,76
1767759845,6192.458470662435,11427422,76
1767759845,6189.765930175781,11427412,76
1767759845,6186.9291464487715,11427408,76
1767759845,6183.034578959147,11427381,76
1767759845,6182.890335718791,11427376,76
1767759845,6183.611551920573,11427368,76
1767759845,6186.063687006633,11427358,76
1767759845,6190.967957178752,11427352,76
1767759845,6197.987794876099,11427343,76
1767759845,6206.546227137248,11427332,76
1767759845,6215.4412269592285,11427326,76
1767759845,6223.47076733907,11427317,76
1767759845,6229.817469914754,11427306,76
1767759845,6233.856280644734,11427299,76
1767759845,6235.394875208537,11427290,76
1767759845,6234.721740086873,11427281,76
1767759845,6232.125361760457,11427272,76
1767759845,6228.278875350952,11427266,76
1767759845,6223.711172739665,11427256,76
1767759845,6219.191551208496,11427249,76
1767759845,6215.922037760417,11427240,76
1767759845,6214.864253997803,11427229,76
1767759845,6216.787497202556,11427222,76
1767759845,6221.595605214437,11427213,76
1767759845,6229.000091552734,11427207,76
1767759845,6238.039334615071,11427201,76
1767759845,6247.559388478597,11427197,76
1767759845,6255.877415339152,11427190,76
1767759845,6261.118253072103,11427189,76
1767759845,6261.887550354004,11427178,76
1767759845,6257.319847742717,11427173,76
1767759845,6247.751712799072,11427171,76
1767759845,6206.01733525594,11427164,76
1767759845,6196.30495707194,11427162,76
1767759845,6191.833416620891,11427163,76
1767759845,6191.881497701009,11427158,76
1767759845,6193.997065226237,11427160,76
1767759845,6194.910605748494,11427160,76
1767759845,6191.737254460652,11427166,76
1767759845,6183.130741119385,11427166,76
1767759845,6170.004606246948,11427164,76
1767759845,6155.147552490234,11427170,76
1767759845,6142.406066258748,11427173,76
1767759845,6134.905417760213,11427177,76
1767759845,6146.300633748372,11427190,76
1767759845,6152.935822804769,11427196,76
1767759845,6156.301498413086,11427199,76
1767759845,6156.253417332967,11427204,76
1767759845,6154.137849807739,11427212,76
1767759845,6152.695417404175,11427224,76
1767759845,6153.945525487264,11427224,76
1767759845,6158.897876739502,11427233,76
1767759845,6166.590849558513,11427243,76
1767759845,6174.716552098592,11427248,76
1767759845,6180.726687113444,11427258,76
1767759845,6183.226903279622,11427264,76
1767759845,6182.794173558553,11427271,76
1767759845,6181.399822235107,11427282,76
1767759845,6181.736389795939,11427289,76
1767759845,6185.630957285563,11427302,76
1767759845,6193.612416585286,11427308,76
1767759845,6204.334497451782,11427315,76
1767759845,6215.393145879109,11427327,76
1767759845,6223.90349706014,11427331,76
1767759845,6227.701902389526,11427347,76
1767759845,6226.019064585368,11427355,76
1767759845,6219.768524169922,11427362,76
1767759845,6210.48887570699,11427373,76
1767759845,6200.343767801921,11427381,76
1767759845,6190.919876098633,11427387,76
1767759845,6183.611551920573,11427399,76
1767759845,6179.140011469523,11427409,76
1767759845,6185.967524846395,11427434,76
1767759845,6192.7469571431475,11427445,76
1767759845,6199.5263894399,11427451,76
1767759845,6204.574902852376,11427462,76
1767759845,6206.546227137248,11427471,76
1767759845,6204.863389333089,11427483,76
1767759845,6200.8726596832275,11427492,76
1767759845,6196.449200312297,11427500,76
1767759845,6194.0451463063555,11427512,76
1767759845,6200.680335362752,11427529,76
1767759845,6207.6520919799805,11427542,76
1767759845,6213.373740514119,11427553,76
1767759845,6214.623848597209,11427562,76
1767759845,6209.334929784139,11427574,76
1767759845,6197.795470555623,11427582,76
1767759845,6166.061957677205,11427650,76
1767759845,6176.2551466623945,11427662,76
1767759845,6184.332768122355,11427673,76
1767759845,6188.419659932454,11427686,76
1767759845,6188.660065333049,11427700,76
1767759845,6202.892065048218,11427776,76
1767759845,6202.603578567505,11427790,76
1767759845,6197.458902994792,11427801,76
1767759845,6188.99663289388,11427815,76
1767759845,6180.005470911662,11427825,76
1767759845,6173.803011576335,11427840,76
1767759845,6172.408660252889,11427854,76
1767759845,6191.064119338989,11427921,76
1767759845,6188.419659932454,11427933,76
1767759845,6186.688741048177,11427946,76
1767759845,6188.756227493286,11427957,76
1767759845,6196.160713831584,11427972,76
1767759845,6208.08482170105,11427985,76
1767759845,6227.894226710002,11428043,76
1767759845,6216.162443161011,11428058,76
1767759845,6204.334497451782,11428067,76
1767759845,6194.3817138671875,11428081,76
1767759845,6186.881065368652,11428093,76
1767759845,6181.015173594157,11428101,76
1767759845,6175.678173700969,11428114,76
1767759845,6170.245011647542,11428125,76
1767759845,6165.581146876018,11428136,76
1767759845,6194.093227386475,11428187,76
1767759845,6200.007200241089,11428195,76
1767759845,6198.420524597168,11428206,76
1767759845,6189.092795054118,11428217,76
1767759845,6174.9569574991865,11428225,76
1767759845,6161.157687505086,11428233,76
1767759845,6179.572741190593,11428294,76
1767759845,6173.947254816691,11428303,76
1767759845,6163.85022799174,11428321,76
1767759845,6175.822416941325,11428325,76
1767759845,6206.257740656535,11428336,76
1767759845,6253.281037012736,11428347,76
1767759845,6308.333873748779,11428353,76
1767759845,6357.9535484313965,11428361,76
1767759845,6388.292709986369,11428371,76
1767759845,6389.783223470052,11428379,76
1767759845,6360.742251078288,11428387,77
1767759845,6307.468414306641,11428397,77
1767759845,6242.366631825765,11428407,77
1767759845,6179.140011469523,11428414,77
1767759845,6128.94336382548,11428422,77
1767759845,6097.3060131073,11428429,77
1767759845,6083.650986353557,11428438,77
1767759845,6082.448959350586,11428445,77
1767759846,6087.064743041992,11428454,77
1767759846,6092.209418614705,11428459,77
1767759846,6131.299336751302,11428489,77
1767759846,6146.252552668254,11428492,77
1767759846,6158.945957819621,11428496,77
1767759846,6166.735092798869,11428502,77
1767759846,6169.187227884929,11428504,77
1767759846,6168.514092763265,11428507,77
1767759846,6168.129444122314,11428511,77
1767759846,6211.017767588298,11428515,77
1767759846,6207.604010899861,11428514,77
1767759846,6200.247605641683,11428515,77
1767759846,6185.534795125325,11428509,77
1767759846,6182.698011398315,11428507,77
1767759846,6183.178822199504,11428501,77
1767759846,6185.77520052592,11428501,77
1767759846,6189.044713973999,11428497,77
1767759846,6203.132470448812,11428465,77
1767759846,6205.24803797404,11428460,77
1767759846,6205.488443374634,11428461,77
1767759846,6203.324794769287,11428447,77
1767759846,6199.814875920613,11428443,77
1767759846,6213.229497273763,11428417,77
1767759846,6228.615442911784,11428405,77
1767759846,6244.386037190755,11428399,77
1767759846,6255.781253178914,11428391,77
1767759846,6213.998794555664,11428352,77
1767759846,6221.499443054199,11428349,77
1767759846,6236.45265897115,11428343,77
1767759846,6253.3291180928545,11428338,77
1767759846,6265.445550282796,11428333,77
1767759846,6267.561117808024,11428331,77
1767759846,6257.848739624023,11428326,77
1767759846,6238.616307576497,11428323,77
1767759846,6215.681632359822,11428320,77
1767759846,6196.0164705912275,11428323,77
1767759846,6184.669335683187,11428321,77
1767759846,6183.082660039266,11428320,77
1767759846,6187.986930211385,11428321,77
1767759846,6193.612416585286,11428318,77
1767759846,6193.756659825643,11428319,77
1767759846,6128.510634104411,11428335,77
1767759846,6134.713093439738,11428337,77
1767759846,6150.0028769175215,11428342,77
1767759846,6167.889038721721,11428348,77
1767759846,6181.207497914632,11428349,77
1767759846,6166.638930638631,11428370,77
1767759846,6154.762903849284,11428376,77
1767759846,6149.137417475383,11428384,77
1767759846,6152.5992552439375,11428392,77
1767759846,6163.898309071858,11428398,77
1767759846,6178.1783898671465,11428405,77
1767759846,6189.381281534831,11428415,77
1767759846,6192.939281463623,11428424,77
1767759846,6188.323497772217,11428430,77
1767759846,6178.659200668335,11428435,77
1767759846,6169.283390045166,11428446,77
1767759846,6164.956092834473,11428453,77
1767759846,6168.177525202434,11428459,77
1767759846,6178.03414662679,11428468,77
1767759846,6191.112200419108,11428474,77
1767759846,6202.892065048218,11428482,77
1767759846,6210.056145985921,11428491,77
1767759846,6211.5466594696045,11428498,77
1767759846,6202.940146128337,11428533,77
1767759846,6203.180551528931,11428538,77
1767759846,6201.16114616394,11428542,77
1767759846,6196.545362472534,11428551,77
1767759846,6190.342903137207,11428557,77
1767759846,6184.861660003662,11428580,77
1767759846,6190.24674097697,11428585,77
1767759846,6195.6799030303955,11428589,77
1767759846,6200.103362401326,11428599,77
1767759846,6203.084389368693,11428600,77
1767759846,6205.103794733684,11428608,77
1767759846,6206.257740656535,11428611,77
1767759846,6205.969254175822,11428613,77
1767759846,6203.276713689168,11428617,77
1767759846,6163.705984751384,11428640,77
1767759846,6156.878471374512,11428644,77
1767759846,6157.7920118967695,11428645,77
1767759846,6167.263984680176,11428649,77
1767759846,6183.130741119385,11428657,77
1767759846,6200.439929962158,11428661,77
1767759846,6213.710308074951,11428667,77
1767759846,6218.806902567546,11428670,77
1767759846,6214.239199956258,11428676,77
1767759846,6202.122767766316,11428684,77
1767759846,6187.025308609009,11428685,77
1767759846,6168.802579243978,11428702,77
1767759846,6171.447038650513,11428702,77
1767759846,6180.582443873088,11428706,77
1767759846,6192.362308502197,11428714,77
1767759846,6202.170848846436,11428720,77
1767759846,6173.274119695027,11428755,77
1767759846,6173.033714294434,11428762,77
1767759846,6178.322633107503,11428768,77
1767759846,6199.670632680257,11428781,77
1767759846,6211.2100919087725,11428787,77
1767759846,6220.153172810872,11428793,77
1767759846,6224.384307861328,11428799,77
1767759846,6223.182280858357,11428804,77
1767759846,6216.931740442912,11428811,77
1767759846,6207.363605499268,11428821,77
1767759846,6196.689605712891,11428825,77
1767759846,6187.169551849365,11428833,77
1767759846,6179.957389831543,11428841,77
1767759846,6175.774335861206,11428845,77
1767759846,6185.486714045207,11428881,77
1767759846,6190.054416656494,11428886,77
1767759846,6193.03544362386,11428893,77
1767759846,6192.554632822673,11428900,77
1767759846,6186.832984288533,11428907,77
1767759846,6176.303227742513,11428913,77
1767759846,6163.561741511027,11428920,77
1767759846,6153.368552525838,11428923,77
1767759846,6210.10422706604,11428954,77
1767759846,6215.922037760417,11428962,77
1767759846,6208.902200063069,11428967,77
1767759846,6193.227767944336,11428970,77
1767759846,6236.308415730794,11428989,77
1767759846,6290.207306543986,11428994,77
1767759846,6342.0867919921875,11428996,77
1767759846,6374.87808863322,11429000,77
1767759846,6376.176277796428,11429002,77
1767759846,6212.412118911743,11429016,79
1767759846,6148.416201273601,11429015,79
1767759846,6104.18160756429,11429016,79
1767759846,6084.660689036052,11429021,79
1767759846,6085.622310638428,11429024,79
1767759846,6097.2098509470625,11429022,79
1767759846,6108.749310175578,11429018,79
1767759846,6113.365093866984,11429024,79
1767759846,6110.095580418904,11429022,79
1767759846,6103.508472442627,11429026,79
1767759846,6106.9222291310625,11429023,79
1767759846,6123.173634211223,11429021,79
1767759846,6145.819822947185,11429018,79
1767759846,6168.417930603027,11429015,79
1767759846,6185.246308644612,11429015,79
1767759846,6193.03544362386,11429013,79
1767759846,6192.795038223267,11429008,79
1767759846,6188.275416692098,11429003,79
1767759846,6195.776065190633,11428979,79
1767759846,6194.814443588257,11428974,79
1767759846,6189.669768015544,11428967,79
1767759846,6182.698011398315,11428960,79
1767759846,6177.26484934489,11428950,79
1767759846,6176.110903422038,11428942,79
1767759846,6185.053984324138,11428924,79
1767759846,6189.765930175781,11428915,79
1767759846,6190.24674097697,11428906,79
1767759846,6185.438632965088,11428898,79
1767759846,6177.2167682647705,11428886,79
1767759846,6169.716119766235,11428879,79
1767759846,6167.456309000651,11428868,79
1767759846,6173.274119695027,11428856,79
1767759846,6186.832984288533,11428847,79
1767759846,6204.863389333089,11428840,79
1767759846,6222.364902496338,11428828,79
1767759846,6239.145199457805,11428806,79
1767759846,6236.116091410319,11428796,79
1767759846,6228.807767232259,11428787,79
1767759846,6221.595605214437,11428774,79
1767759846,6218.326091766357,11428764,79
1767759846,6220.68206469218,11428754,79
1767759846,6227.846145629883,11428745,79
1767759846,6237.318118413289,11428737,79
1767759846,6246.165037155151,11428726,79
1767759846,6252.0309289296465,11428717,79
1767759846,6251.309712727864,11428704,79
1767759846,6246.64584795634,11428694,79
1767759846,6241.453091303508,11428686,79
1767759846,6237.270037333171,11428679,79
1767759846,6235.010226567586,11428667,79
1767759846,6234.914064407349,11428654,79
1767759846,6232.798496882121,11428651,79
1767759846,6226.980686187744,11428643,79
1767759846,6216.691335042317,11428643,79
1767759847,6202.555497487386,11428639,79
1767759847,6186.832984288533,11428636,79
1767759847,6172.745227813721,11428635,79
1767759847,6163.465579350789,11428630,79
1767759847,6160.532633463542,11428628,79
1767759847,6176.495552062988,11428633,79
1767759847,6172.120173772176,11428632,79
1767759847,6163.177092870076,11428634,79
1767759847,6153.176228205363,11428634,79
1767759847,6183.226903279622,11428656,79
1767759847,6177.793741226196,11428656,79
1767759847,6168.177525202434,11428662,79
1767759847,6157.647768656413,11428665,79
1767759847,6149.281660715739,11428668,79
1767759847,6168.369849522908,11428688,79
1767759847,6183.082660039266,11428694,79
1767759847,6199.045578638713,11428698,79
1767759847,6213.469902674357,11428703,79
1767759847,6225.826740264893,11428704,79
1767759847,6221.547524134318,11428712,79
1767759847,6212.989091873169,11428717,79
1767759847,6204.959551493327,11428718,79
1767759847,6202.747821807861,11428720,79
1767759847,6223.8554159800215,11428722,79
1767759847,6242.078145345052,11428725,79
1767759847,6257.944901784261,11428734,79
1767759847,6266.647577285767,11428737,79
1767759847,6266.50333404541,11428738,79
1767759847,6259.820063908895,11428740,79
1767759847,6251.88668568929,11428743,79
1767759847,6282.947063446045,11428756,79
1767759847,6296.505928039551,11428759,79
1767759847,6316.41149520874,11428761,79
1767759847,6350.020170211792,11428764,79
1767759847,6402.717034022014,11428769,79
1767759847,6473.44430287679,11428767,79
1767759847,6550.95100402832,11428772,79
1767759847,6331.701278686523,11428784,121
1767759847,6120.721499125163,11428788,121
1767759847,5901.423692703247,11428793,121
1767759847,5708.57048034668,11428792,121
1767759847,5569.423834482829,11428800,121
1767759847,5782.567262649536,11428818,121
1767759847,5830.023288726807,11428827,121
1767759847,5879.065990447998,11428827,121
1767759847,6279.48522567749,11428845,121
1767759847,6312.853495279948,11428852,121
1767759847,6326.700846354167,11428853,121
1767759847,6324.825684229533,11428858,625
1767759847,6313.238143920898,11428860,625
1767759847,6298.236846923828,11428861,625
1767759847,6284.870306650798,11428862,625
1767759847,6276.263793309529,11428862,625
1767759847,6265.060901641846,11428857,625
1767759847,6251.742442448934,11428854,625
1767759847,6233.135064442952,11428855,625
1767759847,6212.027470270793,11428850,625
1767759847,6192.218065261841,11428844,625
1767759847,6222.941875457764,11428806,625
1767759847,6231.452226638794,11428797,625
1767759847,6237.077713012695,11428785,625
1767759847,6292.515198389689,11428733,625
1767759847,6313.093900680542,11428720,625
1767759847,6333.86492729187,11428707,625
1767759847,6353.482007980347,11428697,625
1767759847,6371.512413024902,11428680,625
1767759847,6388.004223505656,11428672,625
1767759847,6402.86127726237,11428655,625
1767759847,6415.314277013143,11428642,625
1767759847,6423.968871434529,11428629,625
1767759847,6426.661411921184,11428614,625
1767759847,6421.949466069539,11428601,405
1767759847,6409.544547398885,11428579,405
1767759847,6391.225655873616,11428568,405
1767759847,6369.925737380981,11428558,405
1767759847,6269.772847493489,11428491,405
1767759847,6241.116523742676,11428472,405
1767759847,6206.401983896892,11428461,405
1767759847,6168.4660116831465,11428453,405
1767759847,6132.068634033203,11428436,405
1767759847,6072.97698656718,11428390,405
1767759847,6076.006094614665,11428382,405
1767759847,6079.227526982625,11428370,405
1767759847,6080.573797225952,11428362,405
1767759847,6080.333391825358,11428353,405
1767759847,6080.189148585002,11428342,405
1767759847,6082.352797190349,11428334,405
1767759847,6087.641716003418,11428324,405
1767759847,6095.23852666219,11428318,405
1767759847,6114.32671546936,11428292,405
1767759847,6118.79825592041,11428287,405
1767759847,6127.549012502034,11428282,405
1767759847,6140.819390614827,11428281,405
1767759847,6156.253417332967,11428273,405
1767759847,6154.5224984486895,11428257,405
1767759847,6148.945093154907,11428255,405
1767759847,6153.753201166789,11428253,405
1767759847,6170.052687327067,11428249,405
1767759847,6193.708578745524,11428247,405
1767759847,6217.316389083862,11428247,405
1767759847,6202.555497487386,11428240,405
1767759847,6182.938416798909,11428239,405
1767759847,6171.879768371582,11428234,405
1767759847,6186.9291464487715,11428234,405
1767759847,6204.767227172852,11428236,405
1767759847,6218.806902567546,11428236,405
1767759847,6221.836010615031,11428233,405
1767759847,6211.498578389485,11428233,405
1767759847,6190.919876098633,11428230,405
1767759847,6167.696714401245,11428232,405
1767759847,6150.724093119304,11428226,405
1767759847,6146.492958068848,11428227,405
1767759847,6156.638065973918,11428225,405
1767759847,6177.168687184651,11428228,405
1767759847,6200.77649752299,11428226,405
1767759847,6219.3357944488525,11428224,405
1767759847,6212.652524312337,11428221,405
1767759847,6198.660929997762,11428224,405
1767759847,6188.323497772217,11428222,405
1767759847,6184.957822163899,11428223,405
1767759847,6188.61198425293,11428224,405
1767759847,6195.776065190633,11428222,405
1767759847,6201.8342812856035,11428219,405
1767759847,6202.699740727742,11428219,405
1767759847,6197.218497594197,11428219,405
1767759847,6167.648633321126,11428218,405
1767759847,6165.917714436849,11428220,405
1767759847,6171.110471089681,11428220,405
1767759847,6181.255578994751,11428222,405
1767759847,6192.410389582316,11428224,405
1767759847,6183.803876241048,11428228,405
1767759847,6176.543633143107,11428230,405
1767759847,6173.17795753479,11428232,405
1767759847,6174.6203899383545,11428234,405
1767759847,6179.909308751424,11428236,405
1767759847,6186.881065368652,11428240,405
1767759847,6190.535227457683,11428255,405
1767759847,6190.8237139383955,11428260,405
1767759847,6193.756659825643,11428265,405
1767759847,6198.516686757405,11428265,405
1767759847,6202.651659647624,11428265,405
1767759847,6203.949848810832,11428271,405
1767759847,6200.824578603108,11428275,405
1767759847,6172.79330889384,11428289,405
1767759847,6180.7747681935625,11428293,405
1767759847,6192.314227422078,11428301,405
1767759847,6203.517119089763,11428301,405
1767759847,6210.536956787109,11428304,405
1767759847,6211.306254069011,11428309,405
1767759847,6182.12103843689,11428321,405
1767759847,6183.803876241048,11428320,405
1767759847,6185.871362686157,11428321,405
1767759847,6185.919443766276,11428326,405
1767759847,6182.553768157959,11428329,405
1767759847,6173.418362935384,11428335,405
1767759847,6183.226903279622,11428334,405
1767759847,6196.160713831584,11428336,405
1767759847,6208.132902781169,11428334,405
1767759847,6215.056578318278,11428337,405
1767759847,6214.239199956258,11428338,405
1767759847,6205.728848775228,11428339,405
1767759847,6192.506551742554,11428336,405
1767759847,6178.899606068929,11428336,405
1767759847,6169.379552205403,11428340,405
1767759848,6166.542768478394,11428338,405
1767759848,6170.533498128255,11428340,405
1767759848,6179.28425470988,11428337,405
1767759848,6189.285119374593,11428338,405
1767759848,6197.12233543396,11428338,405
1767759848,6190.390984217326,11428335,405
1767759848,6194.3817138671875,11428337,405
1767759848,6201.930443445842,11428336,405
1767759848,6210.729281107585,11428331,405
1767759848,6217.364470163981,11428335,405
1767759848,6218.662659327189,11428331,405
1767759848,6213.325659434001,11428333,405
1767759848,6202.459335327148,11428331,405
1767759848,6188.804308573405,11428331,405
1767759848,6167.552471160889,11428330,405
1767759848,6167.552471160889,11428331,405
1767759848,6162.792444229126,11428330,405
1767759848,6173.899173736572,11428329,405
1767759848,6184.765497843425,11428330,405
1767759848,6189.044713973999,11428332,405
1767759848,6182.553768157959,11428330,405
1767759848,6165.244579315186,11428332,405
1767759848,6143.031120300293,11428331,405
1767759848,6126.346985499064,11428328,405
1767759848,6126.92395846049,11428326,405
1767759848,6399.399439493815,11428325,405
1767759848,6421.709060668945,11428324,405
1767759848,6406.323115030925,11428322,84
1767759848,6357.905467351277,11428322,84
1767759848,6290.351549784343,11428320,84
1767759848,6130.674282709758,11428305,84
1767759848,6135.482390721639,11428297,84
1767759848,6131.5397421518965,11428295,84
1767759848,6092.305580774943,11428285,84
1767759848,6071.149905522664,11428279,84
1767759848,6062.78379758199,11428271,84
1767759848,6073.890527089437,11428263,84
1767759848,6104.518175125122,11428257,84
1767759848,6147.166093190511,11428249,84
1767759848,6190.054416656494,11428241,84
1767759848,6221.643686294556,11428230,84
1767759848,6234.962145487468,11428217,84
1767759848,6229.6732266743975,11428205,84
1767759848,6211.979389190674,11428195,84
1767759848,6191.304524739583,11428182,84
1767759848,6176.447470982869,11428171,84
1767759848,6193.997065226237,11428129,84
1767759848,6206.882794698079,11428112,84
1767759848,6212.8448486328125,11428102,84
1767759848,6209.190686543782,11428083,84
1767759848,6197.170416514079,11428066,84
1767759848,6181.30366007487,11428048,84
1767759848,6166.879336039226,11428029,84
1767759848,6157.936255137126,11428011,84
1767759848,6156.686147054036,11427997,84
1767759848,6162.60011990865,11427977,84
1767759848,6173.3222007751465,11427956,84
1767759848,6185.77520052592,11427938,84
1767759848,6197.603146235148,11427917,84
1767759848,6207.26744333903,11427899,84
1767759848,6214.335362116496,11427880,84
1767759848,6218.518416086833,11427860,84
1767759848,6201.738119125366,11427762,84
1767759848,6198.228200276692,11427745,84
1767759848,6198.468605677287,11427730,84
1767759848,6202.699740727742,11427711,84
1767759848,6209.815740585327,11427693,84
1767759848,6203.132470448812,11427610,84
1767759848,6191.7853355407715,11427596,84
1767759848,6183.851957321167,11427582,84
1767759848,6182.649930318196,11427570,84
1767759848,6188.948551813762,11427559,84
1767759848,6232.6061725616455,11427505,84
1767759848,6223.326524098714,11427499,84
1767759848,6209.863821665446,11427491,84
1767759848,6196.256875991821,11427486,84
1767759848,6186.207930246989,11427479,84
1767759848,6181.68830871582,11427475,84
1767759848,6182.698011398315,11427468,84
1767759848,6186.784903208415,11427465,84
1767759848,6190.919876098633,11427465,84
1767759848,6192.218065261841,11427462,84
1767759848,6168.562173843384,11427456,84
1767759848,6170.34117380778,11427459,84
1767759848,6171.350876490275,11427461,84
1767759848,6170.148849487305,11427459,84
1767759848,6166.3023630778,11427465,84
1767759848,6160.484552383423,11427472,84
1767759848,6166.783173878987,11427479,84
1767759848,6176.207065582275,11427478,84
1767759848,6185.582876205444,11427481,84
1767759848,6191.544930140178,11427485,84
1767759848,6192.218065261841,11427489,84
1767759848,6188.131173451741,11427490,84
1767759848,6182.457605997722,11427496,84
1767759848,6179.188092549642,11427500,84
1767759848,6181.784470876058,11427503,84
1767759848,6190.8237139383955,11427508,84
1767759848,6203.469038009644,11427511,84
1767759848,6214.671929677327,11427514,84
1767759848,6219.239632288615,11427521,84
1767759848,6214.335362116496,11427521,84
1767759848,6168.033281962077,11427535,84
1767759848,6181.4479033152265,11427540,84
1767759848,6198.228200276692,11427538,84
1767759848,6212.027470270793,11427544,84
1767759848,6218.133767445882,11427545,84
1767759848,6215.585470199585,11427548,84
1767759848,6206.930875778198,11427551,84
1767759848,6197.218497594197,11427553,84
1767759848,6190.679470698039,11427554,84
1767759848,6189.573605855306,11427556,84
1767759848,6196.449200312297,11427555,84
1767759848,6196.256875991821,11427559,84
1767759848,6190.054416656494,11427562,84
1767759848,6178.803443908691,11427565,84
1767759848,6166.68701171875,11427566,84
1767759848,6158.897876739502,11427568,84
1767759848,6159.186363220215,11427567,84
1767759848,6168.081363042195,11427567,84
1767759848,6182.361443837483,11427570,84
1767759848,6196.593443552653,11427576,84
1767759848,6205.24803797404,11427577,84
1767759848,6167.0716603597,11427592,84
1767759848,6169.475714365642,11427589,84
1767759848,6177.937984466553,11427596,84
1767759848,6188.467741012573,11427597,84
1767759848,6196.401119232178,11427596,84
1767759848,6194.525957107544,11427622,84
1767759848,6209.527254104614,11427625,84
1767759848,6224.768956502278,11427632,84
1767759848,6236.308415730794,11427636,84
1767759848,6241.453091303508,11427638,84
1767759848,6238.952875137329,11427645,84
1767759848,6229.336659113566,11427649,84
1767759848,6214.864253997803,11427651,84
1767759848,6199.14174079895,11427657,84
1767759848,6190.775632858276,11427684,84
1767759848,6193.323930104573,11427688,84
1767759848,6191.352605819702,11427694,84
1767759848,6185.77520052592,11427697,84
1767759848,6179.140011469523,11427700,84
1767759848,6168.562173843384,11427723,84
1767759848,6160.676876703898,11427724,84
