timestamp,Channel 1,Channel 2,Channel 3
1767760632,6873.863538106282,12080168,517
1767760632,6867.372592290242,12080173,517
1767760632,6862.901051839192,12080174,517
1767760632,6863.766511281331,12080175,517
1767760632,6871.796051661174,12080178,517
1767760632,6930.166482925415,12080181,517
1767760632,6935.311158498128,12080177,517
1767760632,6935.311158498128,12080178,517
1767760632,6933.051347732544,12080181,517
1767760632,6932.330131530762,12080180,517
1767760632,6967.333157857259,12080178,517
1767760632,6990.075508753459,12080174,517
1767760632,7012.673616409302,12080169,517
1767760632,7030.463616053264,12080168,517
1767760632,7040.368318557739,12080164,517
1767760632,7041.57034556071,12080158,517
1767760632,7035.896778106689,12080151,517
1767760632,7027.290264765422,12080148,517
1767760632,7021.039724349976,12080141,517
1767760632,7021.424372990926,12080134,517
1767760632,7029.694318771362,12080126,517
1767760632,7043.012777964274,12080118,517
1767760632,7055.6581020355225,12080112,517
1767760632,7060.610453287761,12080100,517
1767760632,7052.5328318278,12080092,517
1767760632,7029.213507970174,12080078,517
1767760632,6993.1526978810625,12080065,517
1767760632,6950.504779815674,12080051,517
1767760632,6909.5877806345625,12080039,517
1767760632,6877.710024515788,12080025,517
1767760632,6858.573754628499,12080010,517
1767760632,6851.361592610677,12079994,517
1767760632,6851.746241251628,12079978,517
1767760632,6854.150295257568,12079957,517
1767760632,6854.438781738281,12079936,517
1767760632,6850.976943969727,12079918,517
1767760632,6845.111052195231,12079898,517
1767760632,6840.062538782756,12079876,517
1767760632,6839.052836100261,12079853,517
1767760632,6843.909025192261,12079832,517
1767760632,6853.5252412160235,12079805,517
1767760632,6864.63197072347,12079782,517
1767760632,6876.123348871867,12079699,517
1767760632,6871.892213821411,12079675,517
1767760632,6867.228349049886,12079640,517
1767760632,6864.391565322876,12079612,517
1767760632,6864.535808563232,12079579,517
1767760632,6873.911619186401,12079485,517
1767760632,6875.642538070679,12079457,517
1767760632,6877.084970474243,12079421,517
1767760632,6880.354483922322,12079383,517
1767760632,6886.941591898601,12079351,517
1767760632,6896.798213322957,12079316,517
1767760632,6908.241510391235,12079283,517
1767760632,6914.4439697265625,12079111,517
1767760632,6908.2895914713545,12079081,517
1767760632,6905.5970509847,12079044,517
1767760632,6915.069023768107,12078947,517
1767760632,6914.732456207275,12078916,517
1767760632,6909.203131993611,12078882,517
1767760632,6899.346510569255,12078855,517
1767760632,6888.287862141927,12078823,517
1767760632,6880.306402842204,12078793,517
1767760632,6879.537105560303,12078771,517
1767760632,6887.566645940145,12078744,517
1767760632,6950.26437441508,12078645,517
1767760632,6952.956914901733,12078619,517
1767760632,6948.148806889852,12078596,517
1767760632,6938.869158426921,12078581,517
1767760632,6929.15678024292,12078558,517
1767760632,6922.569672266643,12078547,517
1767760632,6921.127239863078,12078530,517
1767760632,6924.348672231038,12078512,517
1767760632,6929.493347803752,12078499,517
1767760632,6932.859023412068,12078483,517
1767760632,6931.656996409099,12078471,517
1767760632,6924.829483032227,12078464,517
1767760632,6913.290023803711,12078455,517
1767760632,6899.634997049968,12078448,517
1767760632,6887.278159459432,12078440,517
1767760632,6879.537105560303,12078435,517
1767760632,6878.238916397095,12078429,517
1767760632,6883.0470244089765,12078426,517
1767760632,6891.605456670125,12078424,517
1767760632,6900.7408618927,12078421,517
1767760632,6907.856861750285,12078425,517
1767760632,6915.020942687988,12078422,517
1767760632,6917.232672373454,12078425,517
1767760632,6920.261780420939,12078429,517
1767760632,6923.964023590088,12078430,517
1767760632,6926.223834355672,12078440,517
1767760632,6923.964023590088,12078443,517
1767760632,6914.203564325969,12078449,517
1767760632,6897.327105204265,12078455,517
1767760632,6878.094673156738,12078464,517
1767760632,6864.968538284302,12078466,517
1767760632,6867.324511210124,12078475,517
1767760632,6891.41313234965,12078481,517
1767760632,6936.609347661336,12078492,517
1767760632,6994.210481643677,12078499,517
1767760632,7048.782507578532,12078506,517
1767760632,6867.228349049886,12078547,7
1767760632,6777.845621109009,12078557,7
1767760632,6711.974541346232,12078563,7
1767760632,6684.376001358032,12078572,7
1767760632,6714.042027791341,12078579,7
1767760632,6755.439837773641,12078584,7
1767760632,6794.962485631307,12078591,7
1767760632,6823.955376942952,12078600,7
1767760632,6841.024160385132,12078598,7
1767760632,6850.159565607707,12078603,7
1767760632,6857.32364654541,12078607,7
1767760632,6866.603295008342,12078606,7
1767760632,6878.912051518758,12078607,7
1767760632,6891.653537750244,12078610,7
1767760633,6901.654402414958,12078609,7
1767760633,6906.270186106364,12078605,7
1767760633,6905.452807744344,12078599,7
1767760633,6901.750564575195,12078598,7
1767760633,6898.769537607829,12078595,7
1767760633,6908.674240112305,12078577,7
1767760633,6911.5110238393145,12078569,7
1767760633,6909.635861714681,12078562,7
1767760633,6903.048753738403,12078552,7
1767760633,6911.991834640503,12078447,7
1767760633,6907.856861750285,12078433,7
1767760633,6901.317834854126,12078416,7
1767760633,6897.182861963908,12078399,7
1767760633,6912.424564361572,12078366,7
1767760633,6934.782266616821,12078350,7
1767760633,6964.159806569417,12078325,7
1767760633,6995.508670806885,12078306,7
1767760633,7023.29953511556,12078283,7
1767760633,7043.3493455251055,12078267,7
1767760633,7054.215669631958,12078244,7
1767760633,7057.437101999919,12078228,7
1767760633,7056.475480397542,12078202,306
1767760633,7054.6964804331465,12078183,306
1767760633,7054.215669631958,12078161,306
1767760633,7055.177291234334,12078141,306
1767760633,7055.177291234334,12078116,306
1767760633,7050.51342646281,12078099,306
1767760633,7037.627696990967,12078078,306
1767760633,7015.125751495361,12078054,306
1767760633,6985.075076421102,12078036,306
1767760633,6951.947212219238,12078017,306
1767760633,6921.608050664266,12077997,306
1767760633,6898.288726806641,12077979,306
1767760633,6883.912483851115,12077958,306
1767760633,6877.2292137146,12077940,306
1767760633,6875.017484029134,12077918,306
1767760633,6872.853835423787,12077904,306
1767760633,6868.045727411906,12077883,306
1767760633,6859.920024871826,12077871,306
1767760633,6850.544214248657,12077852,306
1767760633,6843.043565750122,12077836,306
1767760633,6839.87021446228,12077823,306
1767760633,6841.216484705607,12077807,306
1767760633,6845.399538675944,12077786,306
1767760633,6849.919160207112,12077775,306
1767760633,6852.5636196136475,12077759,306
1767760633,6852.804025014241,12077751,306
1767760633,6851.938565572103,12077738,306
1767760633,6851.986646652222,12077728,306
1767760633,6855.256160100301,12077716,306
1767760633,6862.275997797648,12077704,306
1767760633,6871.651808420817,12077691,306
1767760633,6880.210240681966,12077688,306
1767760633,6885.018348693848,12077676,306
1767760633,6884.874105453491,12077670,306
1767760633,6881.26802444458,12077664,306
1767760633,6877.277294794719,12077657,306
1767760633,6876.123348871867,12077645,306
1767760633,6879.873673121135,12077648,306
1767760633,6916.751861572266,12077628,306
1767760633,6918.771266937256,12077627,306
1767760633,6917.232672373454,12077626,306
1767760633,6915.261348088582,12077624,306
1767760633,6915.597915649414,12077623,306
1767760633,6919.3001588185625,12077626,306
1767760633,6925.358374913533,12077623,306
1767760633,6931.512753168742,12077623,306
1767760633,6935.070753097534,12077626,306
1767760633,6934.253374735515,12077625,306
1767760633,6928.964455922444,12077629,306
1767760633,6920.790672302246,12077633,306
1767760633,6912.376483281453,12077635,306
1767760633,6906.270186106364,12077640,306
1767760633,6903.4334023793535,12077641,306
1767760633,6903.241078058879,12077647,306
1767760633,6903.866132100423,12077650,306
1767760633,6903.481483459473,12077655,306
1767760633,6901.413997014363,12077659,306
1767760633,6897.855997085571,12077665,306
1767760633,6894.009510676066,12077671,306
1767760633,6891.701618830363,12077677,306
1767760633,6892.4228350321455,12077687,306
1767760633,6896.750132242839,12077689,306
1767760633,6903.914213180542,12077695,306
1767760633,6911.8475914001465,12077703,306
1767760633,6918.146212895711,12077707,306
1767760633,6921.463807423909,12077714,306
1767760633,6918.530861536662,12077742,306
1767760633,6919.6367263793945,12077747,306
1767760633,6924.877564112346,12077753,306
1767760633,6934.253374735515,12077760,306
1767760633,6945.263942082723,12077770,306
1767760633,6953.6300500233965,12077780,306
1767760633,6954.9282391866045,12077784,306
1767760633,6946.1774826049805,12077794,306
1767760633,6927.906672159831,12077799,306
1767760633,6903.818051020305,12077805,306
1767760633,6879.921754201253,12077819,306
1767760633,6862.708727518718,12077823,306
1767760633,6877.1811326344805,12077844,306
1767760633,6893.095970153809,12077852,306
1767760633,6904.154618581136,12077859,306
1767760633,6906.270186106364,12077869,306
1767760633,6900.644699732463,12077874,306
1767760633,6891.316970189412,12077881,306
1767760633,6884.249051411946,12077889,306
1767760633,6883.431673049927,12077895,306
1767760633,6889.249483744304,12077899,306
1767760633,6898.33680788676,12077903,306
1767760633,6905.404726664226,12077914,306
1767760633,6906.318267186482,12077915,306
1767760633,6901.654402414958,12077919,306
1767760633,6897.471348444621,12077927,306
1767760633,6903.241078058879,12077932,306
1767760633,6926.848888397217,12077935,306
1767760633,6969.881455103557,12077932,306
1767760633,7103.3064524332685,12077948,306
1767760633,7093.209425608317,12077949,143
1767760633,7039.4547780354815,12077948,143
1767760633,6949.687401453654,12077953,143
1767760633,6843.428214391072,12077954,143
1767760633,6745.967864990234,12077953,143
1767760633,6679.664055506389,12077949,143
1767760633,6656.777461369832,12077950,143
1767760633,6676.250298817952,12077953,143
1767760633,6725.004514058431,12077954,143
1767760633,6783.9038372039795,12077949,143
1767760633,6834.388971328735,12077946,143
1767760633,6865.160862604777,12077950,143
1767760633,6874.200105667114,12077946,143
1767760633,6868.382294972737,12077935,143
1767760633,6859.006484349568,12077937,143
1767760633,6855.977376302083,12077930,143
1767760633,6864.054997762044,12077927,143
1767760633,6881.4122676849365,12077923,143
1767760633,6901.702483495076,12077919,143
1767760633,6917.665402094523,12077913,143
1767760633,6923.867861429851,12077908,143
1767760633,6919.203996658325,12077901,143
1767760633,6906.702915827434,12077894,143
1767760633,6892.567078272502,12077888,143
1767760633,6882.90278116862,12077876,143
1767760633,6881.508429845174,12077872,143
1767760633,6888.239781061809,12077866,143
1767760633,6899.634997049968,12077858,143
1767760633,6910.934050877889,12077851,143
1767760633,6917.617321014404,12077840,143
1767760633,6917.0403480529785,12077834,143
1767760633,6909.106969833374,12077822,143
1767760633,6896.125078201294,12077813,143
1767760633,6882.277727127075,12077805,143
1767760633,6872.3249435424805,12077798,143
1767760633,6869.776646296184,12077788,143
1767760633,6875.979105631511,12077783,143
1767760633,6890.114943186442,12077774,143
1767760633,6951.754887898763,12077753,143
1767760633,6968.727509180705,12077740,143
1767760633,6981.180508931478,12077734,143
1767760633,6990.219751993815,12077730,143
1767760633,6997.864643732707,12077723,143
1767760633,7006.086508433024,12077717,143
1767760633,7015.654643376668,12077713,143
1767760633,7025.895913441976,12077707,143
1767760633,7035.031318664551,12077705,143
1767760633,7041.185696919759,12077700,143
1767760633,7042.580048243205,12077699,143
1767760633,7038.8297239939375,12077699,294
1767760633,7030.800183614095,12077695,294
1767760633,7020.655075709025,12077697,294
1767760633,7010.942697525024,12077699,294
1767760633,7002.961238225301,12077697,294
1767760633,6996.422211329143,12077698,294
1767760633,6989.306211471558,12077703,294
1767760633,6979.257265726726,12077706,294
1767760633,6964.688698450725,12077713,294
1767760633,6945.312023162842,12077713,294
1767760633,6922.569672266643,12077721,294
1767760633,6899.10610516866,12077727,294
1767760633,6878.142754236857,12077736,294
1767760633,6862.17983563741,12077746,294
1767760633,6843.860944112142,12077769,294
1767760633,6841.93770090739,12077779,294
1767760633,6840.206782023112,12077793,294
1767760633,6839.100917180379,12077803,294
1767760633,6839.677890141805,12077819,294
1767760633,6842.70699818929,12077829,294
1767760633,6848.140160242717,12077840,294
1767760633,6855.400403340657,12077853,294
1767760633,6862.420241038005,12077873,294
1767760633,6867.372592290242,12077882,294
1767760633,6869.199673334758,12077898,294
1767760633,6868.67078145345,12077911,294
1767760633,6877.325375874837,12077974,294
1767760633,6882.90278116862,12077990,294
1767760633,6886.653105417888,12078006,294
1767760633,6887.807051340739,12078023,294
1767760633,6887.230078379313,12078038,294
1767760633,6887.566645940145,12078053,294
1767760633,6892.807483673096,12078070,294
1767760633,6905.885537465413,12078085,294
1767760633,6926.993131637573,12078096,294
1767760633,6952.3318608601885,12078118,294
1767760633,6975.41077931722,12078131,294
1767760633,6988.825400670369,12078149,294
1767760633,6875.8829434712725,12078225,294
1767760633,6856.073538462321,12078236,294
1767760633,6851.21734937032,12078253,294
1767760633,6859.823862711589,12078269,294
1767760633,6910.5494022369385,12078316,294
1767760633,6918.3385372161865,12078331,294
1767760633,6918.627023696899,12078347,294
1767760633,6914.15548324585,12078360,294
1767760633,6908.529996871948,12078377,294
1767760633,6905.308564503987,12078391,294
1767760633,6906.174023946126,12078412,294
1767760633,6910.453240076701,12078424,294
1767760633,6915.982564290364,12078439,294
1767760633,6920.357942581177,12078462,294
1767760633,6922.569672266643,12078483,294
1767760633,6922.810077667236,12078497,294
1767760633,6922.425429026286,12078515,294
1767760633,6923.194726308187,12078536,294
1767760633,6926.31999651591,12078558,294
1767760633,6931.801239649455,12078577,294
1767760633,6937.619050343831,12078603,294
1767760633,6940.696239471436,12078621,294
1767760634,6937.715212504069,12078648,294
1767760634,6927.810509999593,12078669,294
1767760634,6912.953456242879,12078695,294
1767760634,6897.663672765096,12078718,294
1767760634,6887.133916219075,12078745,294
1767760634,6885.258754094441,12078771,294
1767760634,6892.663240432739,12078797,294
1767760634,6906.462510426839,12078829,294
1767760634,6920.069456100464,12078858,294
1767760634,6926.512320836385,12078885,294
1767760634,6921.079158782959,12078913,294
1767760634,6904.346942901611,12078949,294
1767760634,6882.518132527669,12078979,294
1767760634,6864.680051803589,12079014,294
1767760634,6858.7179978688555,12079039,294
1767760634,6867.564916610718,12079075,294
1767760634,6886.941591898601,12079116,294
1767760634,6907.520294189453,12079147,294
1767760634,6918.290456136067,12079180,294
1767760634,6911.895672480266,12079222,294
1767760634,6889.39372698466,12079252,294
1767760634,6861.218214035034,12079298,294
1767760634,6844.005187352498,12079326,294
1767760634,6853.236754735311,12079368,294
1767760634,6895.932753880818,12079407,294
1767760634,6966.131130854289,12079441,294
1767760634,7045.657237370809,12079478,294
1767760634,7109.605073928833,12079516,294
1767760634,7135.136127471924,12079554,294
1767760634,7109.508911768596,12079592,150
1767760634,7035.223642985026,12079630,150
1767760634,6929.637591044108,12079668,150
1767760634,6818.714539210002,12079703,150
1767760634,6728.1778653462725,12079743,150
1767760634,6675.3848393758135,12079776,150
1767760634,6664.951244990031,12079814,150
1767760634,6689.3283526102705,12079849,150
1767760634,6733.851432800293,12079882,150
1767760634,6782.557566960652,12079916,150
1767760634,6823.23416074117,12079948,150
1767760634,6869.632403055827,12080046,150
1767760634,6871.411403020223,12080074,150
1767760634,6872.901916503906,12080098,150
1767760634,6875.2578894297285,12080127,150
1767760634,6878.719727198283,12080155,150
1767760634,6883.575916290283,12080180,150
1767760634,6889.970699946086,12080199,150
1767760634,6897.711753845215,12080224,150
1767760634,6905.500888824463,12080244,150
1767760634,6911.366780598958,12080264,150
1767760634,6913.001537322998,12080282,150
1767760634,6909.155050913493,12080297,150
1767760634,6899.971564610799,12080314,150
1767760634,6888.047456741333,12080327,150
1767760634,6877.710024515788,12080342,150
1767760634,6873.190402984619,12080350,150
1767760634,6876.363754272461,12080364,150
1767760634,6886.12421353658,12080369,150
1767760634,6898.288726806641,12080378,150
1767760634,6907.856861750285,12080383,150
1767760634,6911.751429239909,12080390,150
1767760634,6909.6839427948,12080392,150
1767760634,6904.346942901611,12080396,150
1767760634,6900.308132171631,12080396,150
1767760634,6901.846726735433,12080395,150
1767760634,6911.462942759196,12080394,150
1767760634,6928.291320800781,12080390,150
1767760634,6948.533455530803,12080389,150
1767760634,6967.71780649821,12080387,150
1767760634,6982.094049453735,12080379,150
1767760634,6991.181373596191,12080372,150
1767760634,6996.566454569499,12080363,150
1767760634,7001.278400421143,12080356,150
1767760634,7007.961670557658,12080346,150
1767760634,7017.866373062134,12080338,150
1767760634,7030.367453893025,12080328,150
1767760634,7042.964696884155,12080315,150
1767760634,7052.292426427205,12080306,150
1767760634,7055.417696634929,12080297,150
1767760634,7051.042318344116,12080282,288
1767760634,7039.93558883667,12080271,288
1767760634,7024.453481038411,12080258,288
1767760634,7007.432778676351,12080244,288
1767760634,6991.277535756429,12080233,288
1767760634,6977.622509002686,12080220,288
1767760634,6967.2369956970215,12080203,288
1767760634,6959.303617477417,12080189,288
1767760634,6951.802968978882,12080176,288
1767760634,6942.475239435832,12080167,288
1767760634,6929.397185643514,12080152,288
1767760634,6912.328402201335,12080138,288
1767760634,6892.182429631551,12080123,288
1767760634,6871.219078699748,12080111,288
1767760634,6852.034727732341,12080100,288
1767760634,6837.225755055745,12080083,288
1767760634,6828.571160634358,12080074,288
1767760634,6826.407512029012,12080059,288
1767760634,6829.436620076497,12080047,288
1767760634,6835.590998331706,12080030,288
1767760634,6842.8512414296465,12080024,288
1767760634,6850.544214248657,12080011,288
1767760634,6858.429511388143,12080002,288
1767760634,6866.603295008342,12079989,288
1767760634,6874.5847543080645,12079981,288
1767760634,6881.508429845174,12079968,288
1767760634,6886.028051376343,12079956,288
1767760634,6886.797348658244,12079945,288
1767760634,6883.191267649333,12079938,288
1767760634,6875.8829434712725,12079927,288
1767760634,6867.228349049886,12079922,288
1767760634,6860.641241073608,12079913,288
1767760634,6859.294970830281,12079906,288
1767760634,6864.295403162639,12079898,288
1767760634,6874.296267827352,12079890,288
1767760634,6886.028051376343,12079880,288
1767760634,6895.836591720581,12079877,288
1767760634,6900.981267293294,12079871,288
1767760634,6888.287862141927,12079851,288
1767760634,6883.960564931233,12079847,288
1767760634,6884.633700052897,12079840,288
1767760634,6890.59575398763,12079839,288
1767760634,6899.634997049968,12079832,288
1767760634,6911.943753560384,12079816,288
1767760634,6905.068159103394,12079813,288
1767760634,6896.9424565633135,12079813,288
1767760634,6889.922618865967,12079806,288
1767760634,6885.210673014323,12079800,288
1767760634,6883.095105489095,12079798,288
1767760634,6883.0470244089765,12079797,288
1767760634,6884.537537892659,12079791,288
1767760634,6887.662808100383,12079792,288
1767760634,6892.61515935262,12079791,288
1767760634,6907.760699590047,12079784,288
1767760634,6916.222969690959,12079777,288
1767760634,6924.348672231038,12079776,288
1767760634,6931.656996409099,12079775,288
1767760634,6938.003698984782,12079775,288
1767760634,6943.9176718393965,12079769,288
1767760634,6956.611076990764,12079764,288
1767760634,6954.447428385417,12079760,288
1767760634,6945.504347483317,12079760,288
1767760634,6929.589509963989,12079756,288
1767760634,6909.395456314087,12079755,288
1767760634,6890.114943186442,12079754,288
1767760634,6877.325375874837,12079745,288
1767760634,6874.9213218688965,12079747,288
1767760634,6882.806619008382,12079746,288
1767760634,6897.230943044026,12079747,288
1767760634,6911.607185999553,12079738,288
1767760634,6919.252077738444,12079738,288
1767760634,6916.55953725179,12079737,288
1767760634,6905.164321263631,12079733,288
1767760634,6891.028483708699,12079727,288
1767760634,6882.037321726481,12079729,288
1767760634,6905.404726664226,12079720,288
1767760634,6912.232240041097,12079714,288
1767760634,6906.750996907552,12079714,288
1767760634,6888.960997263591,12079714,288
1767760634,6867.036024729411,12079708,288
1767760634,6855.352322260539,12079706,288
1767760634,6868.574619293213,12079701,288
1767760634,6914.15548324585,12079700,288
1767760634,6986.757914225261,12079692,288
1767760634,7068.014939626058,12079692,288
1767760634,7131.866614023845,12079685,288
1767760634,7153.695424397786,12079682,288
1767760634,7119.750181833903,12079678,155
1767760634,7032.531102498372,12079671,155
1767760634,6911.174456278483,12079669,155
1767760634,6785.5385939280195,12079665,155
1767760634,6686.251163482666,12079658,155
1767760634,6634.708245595296,12079649,155
1767760634,6636.343002319336,12079645,155
1767760634,6680.769920349121,12079632,155
1767760634,6747.073729832967,12079627,155
1767760634,6812.415917714437,12079622,155
1767760634,6859.920024871826,12079610,155
1767760634,6882.614294687907,12079608,155
1767760634,6883.72015953064,12079593,155
1767760634,6872.901916503906,12079587,155
1767760634,6861.073970794678,12079569,155
1767760634,6855.833133061727,12079564,155
1767760634,6859.150727589925,12079550,155
1767760634,6868.238051732381,12079540,155
1767760634,6878.719727198283,12079527,155
1767760634,6887.422402699788,12079518,155
1767760634,6893.624862035115,12079501,155
1767760634,6898.2406457265215,12079489,155
1767760634,6902.519861857097,12079476,155
1767760634,6906.84715906779,12079459,155
1767760634,6909.924348195394,12079449,155
1767760634,6909.347375233968,12079429,155
1767760634,6903.000672658284,12079414,155
1767760634,6890.547672907512,12079399,155
1767760634,6850.44805208842,12079353,155
1767760634,6850.496133168538,12079337,155
1767760634,6859.727700551351,12079322,155
1767760634,6875.209808349609,12079308,155
1767760634,6892.903645833333,12079290,155
1767760634,6908.818483352661,12079276,155
1767760634,6920.357942581177,12079257,155
1767760634,6927.3777802785235,12079242,155
1767760634,6931.897401809692,12079230,155
1767760634,6937.234401702881,12079210,155
1767760634,6946.465969085693,12079199,155
1767760634,6960.938374201457,12079183,155
1767760634,6979.930400848389,12079169,155
1767760634,7001.326481501262,12079158,155
1767760634,7022.337913513184,12079140,155
1767760634,7040.560642878215,12079126,155
1767760634,7054.215669631958,12079115,155
1767760634,7062.2452100118,12079102,155
1767760634,7064.649264017741,12079091,155
1767760634,7062.293291091919,12079081,306
1767760634,7019.020318984985,12079031,306
1767760634,7007.336616516113,12079025,306
1767760634,6994.354724884033,12079012,306
1767760634,6979.497671127319,12079011,306
1767760634,6923.338969548543,12078988,306
1767760634,6903.769969940186,12078985,306
1767760634,6885.547240575154,12078978,306
1767760634,6869.872808456421,12078977,306
1767760634,6857.515970865886,12078974,306
1767760634,6848.765214284261,12078967,306
1767760634,6843.476295471191,12078967,306
1767760634,6840.783754984538,12078959,306
1767760634,6840.110619862874,12078959,306
1767760634,6841.120322545369,12078956,306
1767760634,6843.716700871785,12078951,306
1767760634,6847.370862960815,12078955,306
1767760635,6851.313511530559,12078950,306
1767760635,6854.583024978638,12078949,306
1767760635,6856.410106023152,12078951,306
1767760635,6856.602430343628,12078947,306
1767760635,6855.400403340657,12078945,306
1767760635,6853.765646616618,12078947,306
1767760635,6853.188673655192,12078943,306
1767760635,6855.736970901489,12078939,306
1767760635,6862.708727518718,12078939,306
1767760635,6873.863538106282,12078942,306
1767760635,6886.893510818481,12078935,306
1767760635,6898.769537607829,12078934,306
1767760635,6906.270186106364,12078936,306
1767760635,6907.712618509929,12078932,306
1767760635,6903.000672658284,12078930,306
1767760635,6894.24991607666,12078928,306
1767760635,6884.92218653361,12078929,306
1767760635,6879.104375839233,12078926,306
1767760635,6879.344781239827,12078926,306
1767760635,6885.73956489563,12078921,306
1767760635,6896.173159281413,12078921,306
1767760635,6906.750996907552,12078913,306
1767760635,6914.299726486206,12078912,306
1767760635,6917.280753453572,12078911,306
1767760635,6915.838321050008,12078905,306
1767760635,6911.943753560384,12078910,306
1767760635,6907.904942830403,12078900,306
1767760635,6905.693213144938,12078898,306
1767760635,6908.04918607076,12078896,306
1767760635,6910.06859143575,12078892,306
1767760635,6910.934050877889,12078888,306
1767760635,6910.934050877889,12078885,306
1767760635,6911.414861679077,12078883,306
1767760635,6914.011240005493,12078880,306
1767760635,6919.396320978801,12078874,306
1767760635,6926.800807317098,12078873,306
1767760635,6934.878428777059,12078872,306
1767760635,6941.561698913574,12078871,306
1767760635,6945.648590723674,12078868,306
1767760635,6946.706374486287,12078868,306
1767760635,6945.2158610026045,12078863,306
1767760635,6942.475239435832,12078864,306
1767760635,6938.821077346802,12078861,306
1767760635,6933.435996373494,12078861,306
1767760635,6924.540996551514,12078859,306
1767760635,6911.414861679077,12078860,306
1767760635,6895.163456598918,12078857,306
1767760635,6879.344781239827,12078857,306
1767760635,6868.430376052856,12078857,306
1767760635,6865.930159886678,12078857,306
1767760635,6872.3249435424805,12078854,306
1767760635,6884.393294652303,12078857,306
1767760635,6896.653970082601,12078855,306
1767760635,6902.664105097453,12078855,306
1767760635,6899.394591649373,12078861,306
1767760635,6888.095537821452,12078860,306
1767760635,6874.632835388184,12078861,306
1767760635,6866.65137608846,12078867,306
1767760635,6868.622700373332,12078864,306
1767760635,6879.825592041016,12078867,306
1767760635,6893.7210241953535,12078867,306
1767760635,6901.654402414958,12078870,306
1767760635,6897.711753845215,12078871,306
1767760635,6882.566213607788,12078872,306
1767760635,6865.257024765015,12078873,306
1767760635,6860.256592432658,12078877,306
1767760635,6880.88337580363,12078881,306
1767760635,6932.666699091594,12078882,306
1767760635,7085.564533869426,12078887,306
1767760635,7139.944235483806,12078889,306
1767760635,7148.214181264241,12078891,306
1767760635,7100.661993026733,12078893,156
1767760635,7004.547913869222,12078898,156
1767760635,6882.614294687907,12078895,156
1767760635,6765.681107838948,12078898,156
1767760635,6681.827704111735,12078900,156
1767760635,6647.209326426188,12078900,156
1767760635,6661.4894072214765,12078904,156
1767760635,6709.858973821004,12078903,156
1767760635,6769.960323969523,12078905,156
1767760635,6821.358998616536,12078904,156
1767760635,6852.275133132935,12078903,156
1767760635,6861.6509437561035,12078907,156
1767760635,6857.179403305054,12078903,156
1767760635,6849.822998046875,12078903,156
1767760635,6848.380565643311,12078903,156
1767760635,6856.1216195424395,12078901,156
1767760635,6869.680484135945,12078899,156
1767760635,6882.614294687907,12078896,156
1767760635,6889.201402664185,12078896,156
1767760635,6887.37432161967,12078890,156
1767760635,6879.921754201253,12078888,156
1767760635,6872.276862462361,12078881,156
1767760635,6869.247754414876,12078881,156
1767760635,6873.2865651448565,12078876,156
1767760635,6882.90278116862,12078873,156
1767760635,6901.894807815552,12078856,156
1767760635,6895.211537679036,12078851,156
1767760635,6884.681781133016,12078847,156
1767760635,6875.450213750203,12078839,156
1767760635,6871.94029490153,12078830,156
1767760635,6876.027186711629,12078826,156
1767760635,6886.797348658244,12078821,156
1767760635,6901.12551053365,12078814,156
1767760635,6915.7421588897705,12078808,156
1767760635,6928.002834320068,12078799,156
1767760635,6937.090158462524,12078793,156
1767760635,6944.398482640584,12078786,156
1767760635,6952.620347340901,12078780,156
1767760635,6964.159806569417,12078773,156
1767760635,6979.930400848389,12078769,156
1767760635,6998.585859934489,12078758,156
1767760635,7017.048994700114,12078753,156
1767760635,7032.146453857422,12078748,156
1767760635,7041.474183400472,12078739,156
1767760635,7044.262886047363,12078735,156
1767760635,7041.522264480591,12078730,319
1767760635,7035.752534866333,12078724,319
1767760635,7029.886643091838,12078719,319
1767760635,7026.280562082927,12078715,319
1767760635,7025.607426961263,12078714,319
1767760635,7026.617129643758,12078706,319
1767760635,7027.049859364827,12078701,319
1767760635,7024.790048599243,12078696,2143
1767760635,7018.44334602356,12078696,2143
1767760635,7007.7212651570635,12078694,2143
1767760635,6993.296941121419,12078694,2143
1767760635,6976.372400919597,12078691,2143
1767760635,6958.341995875041,12078687,2143
1767760635,6940.263509750366,12078685,2143
1767760635,6922.136942545573,12078689,2143
1767760635,6903.866132100423,12078690,2143
1767760635,6884.92218653361,12078689,2143
1767760635,6865.737835566203,12078691,2143
1767760635,6847.803592681885,12078690,2143
1767760635,6832.802295684814,12078692,2143
1767760635,6822.272539138794,12078697,2143
1767760635,6817.079782485962,12078699,2143
1767760635,6817.320187886556,12078703,2143
1767760635,6822.176376978557,12078708,2143
1767760635,6830.013593037923,12078712,2143
1767760635,6838.716268539429,12078714,2143
1767760635,6846.601565678914,12078721,2143
1767760635,6853.236754735311,12078721,2143
1767760635,6859.006484349568,12078733,2143
1767760635,6864.5838896433515,12078737,2143
1767760635,6870.353619257609,12078738,2143
1767760635,6876.363754272461,12078746,2143
1767760635,6882.325808207194,12078751,2143
1767760635,6887.470483779907,12078756,2143
1767760635,6890.884240468343,12078764,2143
1767760635,6892.038186391194,12078770,2143
1767760635,6890.884240468343,12078775,2143
1767760635,6888.480186462402,12078779,2143
1767760635,6886.364618937175,12078788,2143
1767760635,6885.547240575154,12078790,2143
1767760635,6886.845429738362,12078799,2143
1767760635,6889.874537785848,12078799,2143
1767760635,6894.442240397136,12078808,2143
1767760635,6900.067726771037,12078811,2143
1767760635,6905.981699625651,12078818,2143
1767760635,6911.70334815979,12078822,2143
1767760635,6916.944185892741,12078825,2143
1767760635,6921.367645263672,12078829,2143
1767760635,6924.829483032227,12078834,2143
1767760635,6926.608482996623,12078838,2143
1767760635,6926.175753275554,12078847,2143
1767760635,6923.146645228068,12078845,2143
1767760635,6918.19429397583,12078855,2143
1767760635,6912.857294082642,12078853,2143
1767760635,6908.86656443278,12078853,2143
1767760635,6907.66453742981,12078857,2143
1767760635,6909.972429275513,12078860,2143
1767760635,6915.549834569295,12078863,2143
1767760635,6923.002401987712,12078862,2143
1767760635,6930.214564005534,12078862,2143
1767760635,6934.926509857178,12078869,2143
1767760635,6935.118834177653,12078869,2143
1767760635,6930.599212646484,12078867,2143
1767760635,6922.377347946167,12078872,2143
1767760635,6912.616888682048,12078874,2143
1767760635,6903.721888860066,12078872,2143
1767760635,6897.855997085571,12078875,2143
1767760635,6896.70205116272,12078878,2143
1767760635,6900.2119700113935,12078873,2143
1767760635,6906.606753667195,12078876,2143
1767760635,6912.424564361572,12078882,2143
1767760635,6914.203564325969,12078878,2143
1767760635,6909.732023874919,12078886,2143
1767760635,6899.250348409017,12078882,2143
1767760635,6885.787645975749,12078885,2143
1767760635,6873.863538106282,12078888,2143
1767760635,6868.334213892619,12078890,2143
1767760635,6872.228781382243,12078889,2143
1767760635,6884.9702676137285,12078897,2143
1767760635,6901.846726735433,12078890,2143
1767760635,6915.549834569295,12078895,2143
1767760635,6919.9732939402265,12078901,2143
1767760635,6913.578510284424,12078898,2143
1767760635,6901.029348373413,12078903,2143
1767760635,6892.23051071167,12078902,2143
1767760635,6898.192564646403,12078903,2143
1767760635,6926.271915435791,12078910,2143
1767760635,6975.314617156982,12078909,2143
1767760635,7034.117778142293,12078911,2143
1767760635,7083.160479863484,12078916,2143
1767760635,7101.238965988159,12078918,2143
1767760635,7073.20769627889,12078918,179
1767760635,6997.095346450806,12078919,179
1767760635,6885.835727055867,12078921,179
1767760635,6764.094432195027,12078923,179
1767760635,6660.5277856191,12078922,179
1767760635,6598.647435506185,12078925,179
1767760635,6589.51203028361,12078924,179
1767760635,6628.986597061157,12078924,179
1767760635,6699.569622675578,12078922,179
1767760635,6777.893702189128,12078919,179
1767760635,6842.70699818929,12078916,179
1767760635,6882.037321726481,12078915,179
1767760635,6895.115375518799,12078915,179
1767760635,6889.970699946086,12078912,179
1767760635,6878.671646118164,12078912,179
1767760635,6871.315240859985,12078902,179
1767760635,6873.046159744263,12078897,179
1767760635,6882.470051447551,12078897,179
1767760635,6894.201834996541,12078888,179
1767760635,6902.039051055908,12078881,179
1767760635,6902.4717807769775,12078875,179
1767760635,6896.173159281413,12078867,179
1767760635,6886.989672978719,12078860,179
1767760635,6879.825592041016,12078848,179
1767760635,6877.661943435669,12078837,179
1767760635,6880.88337580363,12078827,179
1767760635,6887.230078379313,12078819,179
1767760635,6893.432537714641,12078807,179
1767760635,6896.798213322957,12078799,179
1767760635,6896.028916041057,12078789,179
1767760635,6892.326672871907,12078775,179
1767760635,6888.239781061809,12078768,179
1767760635,6886.605024337769,12078754,179
1767760635,6889.105240503947,12078744,179
1767760635,6895.307699839274,12078732,179
1767760635,6904.058456420898,12078719,179
1767760635,6913.770834604899,12078712,179
1767760635,6923.819780349731,12078698,179
1767760635,6934.589942296346,12078690,179
1767760635,6946.994860967,12078679,179
1767760636,6961.948076883952,12078668,179
1767760636,6980.074644088745,12078658,179
1767760636,7000.653346379598,12078648,179
1767760636,7021.809021631877,12078638,179
1767760636,7041.041453679402,12078629,179
1767760636,7069.793939590454,12078604,179
1767760636,7070.75556119283,12078604,179
1767760636,7069.6016152699785,12078591,306
1767760636,7067.293723424275,12078590,306
1767760636,7064.120372136434,12078584,306
1767760636,7059.264183044434,12078578,306
1767760636,7051.475048065186,12078577,306
1767760636,7022.770643234253,12078575,306
1767760636,7002.240022023519,12078577,306
1767760636,6980.026563008626,12078571,306
1767760636,6958.245833714803,12078572,306
1767760636,6938.196023305257,12078574,306
1767760636,6920.021375020345,12078579,306
1767760636,6903.289159138997,12078581,306
1767760636,6887.326240539551,12078585,306
1767760636,6871.459484100342,12078591,306
1767760636,6856.073538462321,12078593,306
1767760636,6842.178106307983,12078605,306
1767760636,6831.792593002319,12078609,306
1767760636,6830.9752146403,12078631,306
1767760636,6836.264133453369,12078641,306
1767760636,6839.87021446228,12078646,306
1767760636,6840.447187423706,12078659,306
1767760636,6838.139295578003,12078666,306
1767760636,6834.581295649211,12078675,306
1767760636,6832.561890284221,12078688,306
1767760636,6834.725538889567,12078700,306
1767760636,6889.970699946086,12078754,306
1767760636,6893.86526743571,12078765,306
1767760636,6893.432537714641,12078777,306
1767760636,6887.470483779907,12078801,306
1767760636,6885.835727055867,12078813,306
1767760636,6886.845429738362,12078822,306
1767760636,6890.4515107472735,12078832,306
1767760636,6895.788510640462,12078845,306
1767760636,6901.846726735433,12078856,306
1767760636,6907.712618509929,12078864,306
1767760636,6912.8092130025225,12078875,306
1767760636,6916.222969690959,12078883,306
1767760636,6917.280753453572,12078900,306
1767760636,6915.453672409058,12078909,306
1767760636,6911.030213038127,12078918,306
1767760636,6901.702483495076,12078936,306
1767760636,6901.413997014363,12078946,306
1767760636,6906.606753667195,12078953,306
1767760636,6917.953888575236,12078962,306
1767760636,6952.043374379476,12078977,306
1767760636,6967.333157857259,12078986,306
1767760636,6975.555022557576,12078995,306
1767760636,6974.112590154012,12079001,306
1767760636,6962.525049845378,12079009,306
1767760636,6943.100293477376,12079014,306
1767760636,6919.925212860107,12079023,306
1767760636,6897.952159245809,12079031,306
1767760636,6881.844997406006,12079041,306
1767760636,6874.728997548421,12079044,306
1767760636,6876.507997512817,12079053,306
1767760636,6884.200970331828,12079061,306
1767760636,6892.951726913452,12079067,306
1767760636,6898.144483566284,12079077,306
1767760636,6897.182861963908,12079080,306
1767760636,6890.7880783081055,12079088,306
1767760636,6882.566213607788,12079100,306
1767760636,6878.046592076619,12079108,306
1767760636,6881.796916325887,12079110,306
1767760636,6895.307699839274,12079117,306
1767760636,6915.165185928345,12079126,306
1767760636,6933.772563934326,12079136,306
1767760636,6942.52332051595,12079140,306
1767760636,6936.561266581218,12079149,306
1767760636,6917.521158854167,12079154,306
1767760636,6894.63456471761,12079161,306
1767760636,6881.508429845174,12079171,306
1767760636,6891.028483708699,12079177,306
1767760636,6928.964455922444,12079183,306
1767760636,6989.787022272746,12079190,306
1767760636,7056.427399317424,12079198,306
1767760636,7104.6046415964765,12079208,306
1767760636,7111.816803614299,12079212,306
1767760636,7065.995534261067,12079220,172
1767760636,6971.227725346883,12079227,172
1767760636,6847.274700800578,12079229,172
1767760636,6723.754405975342,12079239,172
1767760636,6630.284786224365,12079247,172
1767760636,6586.867570877075,12079249,172
1767760636,6598.214705785115,12079255,172
1767760636,6652.786731719971,12079259,172
1767760636,6728.1778653462725,12079265,172
1767760636,6800.155242284139,12079268,172
1767760636,6851.361592610677,12079273,172
1767760636,6876.075267791748,12079275,172
1767760636,6879.63326772054,12079280,172
1767760636,6873.719294865926,12079282,172
1767760636,6876.748402913411,12079283,172
1767760636,6892.470916112264,12079287,172
1767760636,6911.559104919434,12079287,172
1767760636,6925.358374913533,12079289,172
1767760636,6866.26672744751,12079283,172
1767760636,6861.458619435628,12079274,172
1767760636,6865.44934908549,12079271,172
1767760636,6874.825159708659,12079266,172
1767760636,6885.162591934204,12079263,172
1767760636,6892.951726913452,12079261,172
1767760636,6896.605889002482,12079256,172
1767760636,6897.134780883789,12079249,172
1767760636,6896.894375483195,12079241,172
1767760636,6897.90407816569,12079235,172
1767760636,6901.365915934245,12079225,172
1767760636,6906.654834747314,12079222,172
1767760636,6913.4823481241865,12079213,172
1767760636,6921.175320943196,12079206,172
1767760636,6930.070320765178,12079194,172
1767760636,6940.455834070842,12079188,172
1767760636,6952.620347340901,12079179,172
1767760636,6999.066670735677,12079155,172
1767760636,7013.731400171916,12079148,172
1767760636,7025.5593458811445,12079141,172
1767760636,7034.165859222412,12079131,172
1767760636,7039.839426676433,12079120,172
1767760636,7043.733994166057,12079117,172
1767760636,7046.42653465271,12079106,172
1767760636,7048.109372456868,12079100,172
1767760636,7048.4459400177,12079092,172
1767760636,7046.81118329366,12079088,294
1767760636,7042.628129323323,12079078,294
1767760636,7035.223642985026,12079076,294
1767760636,7024.453481038411,12079070,294
1767760636,7010.894616444905,12079068,294
1767760636,6995.652914047241,12079059,294
1767760636,6979.689995447795,12079058,294
1767760636,6963.294347127278,12079056,294
1767760636,6946.658293406169,12079054,294
1767760636,6929.781834284465,12079047,294
1767760636,6912.8092130025225,12079048,294
1767760636,6896.509726842244,12079046,294
1767760636,6881.26802444458,12079046,294
1767760636,6867.46875445048,12079045,294
1767760636,6855.592727661133,12079048,294
1767760636,6846.024592717488,12079049,294
1767760636,6838.523944218953,12079050,294
1767760636,6832.609971364339,12079053,294
1767760636,6827.70570119222,12079052,294
1767760636,6823.811133702596,12079060,294
1767760636,6821.358998616536,12079061,294
1767760636,6820.78202565511,12079063,294
1767760636,6822.368701299031,12079069,294
1767760636,6825.734376907349,12079074,294
1767760636,6830.54248491923,12079078,294
1767760636,6836.3602956136065,12079081,294
1767760636,6843.139727910359,12079090,294
1767760636,6850.44805208842,12079097,294
1767760636,6858.621835708618,12079104,294
1767760636,6868.045727411906,12079112,294
1767760636,6878.960132598877,12079119,294
1767760636,6890.932321548462,12079125,294
1767760636,6902.37561861674,12079132,294
1767760636,6911.366780598958,12079141,294
1767760636,6914.395888646443,12079165,294
1767760636,6909.924348195394,12079169,294
1767760636,6905.837456385295,12079178,294
1767760636,6903.769969940186,12079189,294
1767760636,6904.683510462443,12079195,294
1767760636,6907.712618509929,12079204,294
1767760636,6910.982131958008,12079212,294
1767760636,6912.136077880859,12079219,294
1767760636,6910.453240076701,12079227,294
1767760636,6906.702915827434,12079234,294
1767760636,6902.904510498047,12079243,294
1767760636,6901.942888895671,12079251,294
1767760636,6905.741294225057,12079257,294
1767760636,6915.309429168701,12079268,294
1767760636,6929.397185643514,12079273,294
1767760636,6944.927374521892,12079284,294
1767760636,6957.476536432902,12079291,294
1767760636,6962.861617406209,12079298,294
1767760636,6959.111293156941,12079303,294
1767760636,6946.706374486287,12079315,294
1767760636,6929.0125370025635,12079323,294
1767760636,6910.453240076701,12079330,294
1767760636,6895.596186319987,12079336,294
1767760636,6887.614727020264,12079341,294
1767760636,6903.818051020305,12079374,294
1767760636,6903.000672658284,12079380,294
1767760636,6897.519429524739,12079386,294
1767760636,6890.114943186442,12079396,294
1767760636,6884.537537892659,12079407,294
1767760636,6883.816321690877,12079411,294
1767760636,6888.239781061809,12079423,294
1767760636,6895.740429560344,12079426,294
1767760636,6902.087132136027,12079434,294
1767760636,6903.529564539592,12079442,294
1767760636,6899.394591649373,12079452,294
1767760636,6893.672943115234,12079457,294
1767760636,6894.538402557373,12079465,294
1767760636,6910.501321156819,12079471,294
1767760636,6946.273644765218,12079479,294
1767760636,6998.92242749532,12079489,294
1767760636,7057.00437227885,12079491,294
1767760636,7102.873722712199,12079499,294
1767760636,7118.019262949626,12079506,294
1767760636,7089.651425679524,12079517,183
1767760636,7016.327778498332,12079523,183
1767760636,6909.924348195394,12079528,183
1767760636,6792.750755945842,12079532,183
1767760636,6690.482298533122,12079542,183
1767760636,6624.130407969157,12079544,183
1767760636,6603.69594891866,12079545,183
1767760636,6626.053651173909,12079554,183
1767760636,6677.692731221517,12079558,183
1767760636,6740.005811055501,12079558,183
1767760636,6796.06835047404,12079563,183
1767760636,6836.119890213013,12079566,183
1767760636,6858.910322189331,12079566,183
1767760636,6870.161294937134,12079567,183
1767760636,6877.758105595906,12079569,183
1767760636,6887.181997299194,12079567,183
1767760636,6899.586915969849,12079567,183
1767760636,6912.232240041097,12079567,183
1767760636,6920.790672302246,12079564,183
1767760637,6922.329266866048,12079561,183
1767760637,6916.751861572266,12079552,183
1767760637,6898.432970046997,12079548,183
1767760637,6894.009510676066,12079541,183
1767760637,6894.826889038086,12079535,183
1767760637,6898.288726806641,12079530,183
1767760637,6899.971564610799,12079520,183
1767760637,6896.653970082601,12079517,183
1767760637,6887.614727020264,12079506,183
1767760637,6875.738700230916,12079495,183
1767760637,6865.785916646321,12079488,183
1767760637,6862.324078877767,12079475,183
1767760637,6867.757240931193,12079470,183
1767760637,6881.316105524699,12079456,183
1767760637,6899.058024088542,12079447,183
1767760637,6915.501753489177,12079433,183
1767760637,6926.31999651591,12079423,183
1767760637,6930.503050486247,12079410,183
1767760637,6930.79153696696,12079401,183
1767760637,6932.330131530762,12079385,183
1767760637,6940.11926651001,12079372,183
1767760637,6956.803401311238,12079358,183
1767760637,6981.51707649231,12079350,183
1767760637,7009.88491376241,12079335,183
1767760637,7035.656372706096,12079320,183
1767760637,7053.061723709106,12079312,183
1767760637,7043.060859044393,12079274,319
1767760637,7032.771507898967,12079264,319
1767760637,7028.107643127441,12079254,319
1767760637,7030.848264694214,12079244,319
1767760637,7038.973967234294,12079233,319
1767760637,7047.9170481363935,12079221,319
1767760637,7051.859696706136,12079209,319
1767760637,7046.2822914123535,12079200,1875
1767760637,7029.886643091838,12079194,1875
1767760637,7005.221048990886,12079188,1875
1767760637,6977.189779281616,12079178,1875
1767760637,6950.841347376506,12079172,1875
1767760637,6929.397185643514,12079168,1875
1767760637,6913.001537322998,12079159,1875
1767760637,6899.346510569255,12079152,1875
1767760637,6885.595321655273,12079144,1875
1767760637,6869.632403055827,12079141,1875
1767760637,6850.976943969727,12079136,1875
1767760637,6831.696430842082,12079136,1875
1767760637,6815.252701441447,12079136,1875
1767760637,6804.722944895427,12079128,1875
1767760637,6801.886161168416,12079129,1875
1767760637,6805.732647577922,12079121,1875
1767760637,6813.473701477051,12079119,1875
1767760637,6821.935971577962,12079122,1875
1767760637,6829.244295756022,12079119,1875
1767760637,6834.917863210042,12079118,1875
1767760637,6839.581727981567,12079116,1875
1767760637,6844.293673833211,12079118,1875
1767760637,6849.774916966756,12079120,1875
1767760637,6856.362024943034,12079115,1875
1767760637,6863.237619400024,12079115,1875
1767760637,6869.92088953654,12079119,1875
1767760637,6876.075267791748,12079118,1875
1767760637,6925.550699234009,12079116,1875
1767760637,6933.820645014445,12079117,1875
1767760637,6936.945915222168,12079117,1875
1767760637,6934.926509857178,12079116,1875
1767760637,6929.877996444702,12079114,1875
1767760637,6929.781834284465,12079120,1875
1767760637,6938.676834106445,12079115,1875
1767760637,6947.379509607951,12079112,1875
1767760637,6950.793266296387,12079116,1875
1767760637,6945.696671803792,12079111,1875
1767760637,6932.330131530762,12079113,1875
1767760637,6914.4439697265625,12079111,1875
1767760637,6897.567510604858,12079111,1875
1767760637,6886.989672978719,12079110,1875
1767760637,6885.066429773967,12079107,1875
1767760637,6890.59575398763,12079106,1875
1767760637,6899.298429489136,12079108,1875
1767760637,6905.500888824463,12079108,1875
1767760637,6887.470483779907,12079104,1875
1767760637,6878.383159637451,12079102,1875
1767760637,6875.16172726949,12079102,1875
1767760637,6879.200537999471,12079102,1875
1767760637,6888.5282675425215,12079104,1875
1767760637,6899.298429489136,12079104,1875
1767760637,6907.327969868978,12079105,1875
1767760637,6910.597483317058,12079105,1875
1767760637,6924.973726272583,12079114,1875
1767760637,6930.79153696696,12079116,1875
1767760637,6929.685672124227,12079119,1875
1767760637,6920.838753382365,12079121,1875
1767760637,6908.2895914713545,12079125,1875
1767760637,6900.308132171631,12079130,1875
1767760637,6906.174023946126,12079137,1875
1767760637,6931.656996409099,12079135,1875
1767760637,6975.506941477458,12079139,1875
1767760637,7027.578751246135,12079147,1875
1767760637,7071.092128753662,12079150,1875
1767760637,7087.920506795247,12079153,1875
1767760637,7065.370480219523,12079158,195
1767760637,7001.5668869018555,12079163,195
1767760637,6906.270186106364,12079167,195
1767760637,6799.001296361287,12079169,195
1767760637,6702.598730723063,12079177,195
1767760637,6636.775732040405,12079179,195
1767760637,6612.5428676605225,12079184,195
1767760637,6629.515488942464,12079189,195
1767760637,6677.260001500447,12079192,195
1767760637,6739.476919174194,12079195,195
1767760637,6799.818674723308,12079199,195
1767760637,6846.841971079509,12079200,195
1767760637,6884.249051411946,12079210,195
1767760637,6888.047456741333,12079213,195
1767760637,6896.509726842244,12079209,195
1767760637,6921.752293904622,12079206,195
1767760637,6921.463807423909,12079207,195
1767760637,6915.597915649414,12079206,195
1767760637,6905.356645584106,12079204,195
1767760637,6893.095970153809,12079199,195
1767760637,6881.989240646362,12079192,195
1767760637,6874.728997548421,12079192,195
1767760637,6872.853835423787,12079186,195
1767760637,6876.2195110321045,12079183,195
1767760637,6883.527835210164,12079177,195
1767760637,6892.807483673096,12079172,195
1767760637,6901.942888895671,12079163,195
1767760637,6909.106969833374,12079160,195
1767760637,6913.72275352478,12079153,195
1767760637,6918.482780456543,12079133,195
1767760637,6922.28118578593,12079131,195
1767760637,6929.060618082683,12079122,195
1767760637,6939.205725987752,12079115,195
1767760637,6952.235698699951,12079113,195
1767760637,7029.501994450887,12079070,195
1767760637,7041.666507720947,12079067,195
1767760637,7052.148183186849,12079055,195
1767760637,7060.562372207642,12079047,195
1767760637,7066.28402074178,12079045,195
1767760637,7029.838562011719,12079016,294
1767760637,7010.269562403361,12079013,294
1767760637,6990.123589833577,12079008,294
1767760637,6971.323887507121,12079007,294
1767760637,6955.024401346843,12079001,294
1767760637,6940.888563791911,12079004,294
1767760637,6914.1074021657305,12078996,294
1767760637,6899.10610516866,12078995,294
1767760637,6882.518132527669,12078998,294
1767760637,6865.44934908549,12078997,294
1767760637,6849.822998046875,12079001,294
1767760637,6836.985349655151,12079008,294
1767760637,6839.197079340617,12079010,294
1767760637,6839.052836100261,12079014,294
1767760637,6836.889187494914,12079019,294
1767760637,6833.860079447429,12079023,294
1767760637,6831.648349761963,12079029,294
1767760637,6831.696430842082,12079037,294
1767760637,6835.01402537028,12079039,294
1767760637,6841.024160385132,12079045,294
1767760637,6848.909457524617,12079052,294
1767760637,6877.1811326344805,12079068,294
1767760637,6887.710889180501,12079077,294
1767760637,6898.096402486165,12079081,294
1767760637,6907.327969868978,12079091,294
1767760637,6914.251645406087,12079096,294
1767760637,6918.050050735474,12079109,294
1767760637,6918.098131815593,12079111,294
1767760637,6914.7805372873945,12079125,294
1767760637,6896.605889002482,12079169,294
1767760637,6900.067726771037,12079175,294
1767760637,6904.587348302205,12079188,294
1767760637,6915.934483210246,12079209,294
1767760637,6918.627023696899,12079220,294
1767760637,6922.233104705811,12079228,294
1767760637,6927.473942438762,12079236,294
1767760637,6934.686104456584,12079248,294
1767760637,6943.388779958089,12079252,294
1767760637,6952.043374379476,12079263,294
1767760637,6958.293914794922,12079270,294
1767760637,6959.495941797893,12079283,294
1767760637,6953.822374343872,12079286,294
1767760637,6941.32129351298,12079296,294
1767760637,6924.204428990682,12079306,294
1767760637,6905.981699625651,12079311,294
1767760637,6890.21110534668,12079322,294
1767760637,6879.056294759114,12079333,294
1767760637,6872.998078664144,12079338,294
1767760637,6871.170997619629,12079352,294
1767760637,6872.132619222005,12079358,294
1767760637,6906.462510426839,12079402,294
1767760637,6918.723185857137,12079407,294
1767760637,6926.993131637573,12079420,294
1767760637,6985.3635629018145,12079482,294
1767760637,7034.213940302531,12079491,294
1767760637,7072.486480077107,12079500,294
1767760637,7082.679669062297,12079504,294
1767760637,7052.869399388631,12079509,179
1767760638,6776.98016166687,12079528,179
1767760638,6687.549352645874,12079539,179
1767760638,6634.660164515178,12079541,179
1767760638,6660.912434260051,12079547,179
1767760638,6720.629135767619,12079552,179
1767760638,6786.30789120992,12079557,179
1767760638,6840.30294418335,12079557,179
1767760638,6872.998078664144,12079558,179
1767760638,6884.0086460113525,12079563,179
1767760638,6880.594889322917,12079561,179
1767760638,6872.613430023193,12079566,179
1767760638,6868.382294972737,12079560,179
1767760638,6871.747970581055,12079562,179
1767760638,6881.219943364461,12079559,179
1767760638,6891.990105311076,12079558,179
1767760638,6893.480618794759,12079550,179
1767760638,6885.787645975749,12079544,179
1767760638,6879.825592041016,12079541,179
1767760638,6877.998510996501,12079533,179
1767760638,6880.258321762085,12079528,179
1767760638,6884.92218653361,12079523,179
1767760638,6892.326672871907,12079503,179
1767760638,6891.653537750244,12079492,179
1767760638,6892.374753952026,12079486,179
1767760638,6895.932753880818,12079474,179
1767760638,6902.231375376384,12079470,179
1767760638,6909.491618474324,12079456,179
1767760638,6915.645996729533,12079448,179
1767760638,6919.396320978801,12079440,179
1767760638,6921.079158782959,12079426,179
1767760638,6922.617753346761,12079419,179
1767760638,6926.560401916504,12079407,179
1767760638,6935.214996337891,12079398,179
1767760638,6949.783563613892,12079391,179
1767760638,6969.592968622844,12079375,179
1767760638,6991.8545087178545,12079373,179
1767760638,7013.442913691203,12079360,179
1767760638,7031.569480895996,12079349,179
1767760638,7045.176426569621,12079337,179
1767760638,7054.888804753621,12079333,179
1767760638,7062.004804611206,12079321,179
1767760638,7067.389885584514,12079315,179
1767760638,7071.092128753662,12079308,179
1767760638,7072.101831436157,12079297,179
1767760638,7068.688074747722,12079290,288
1767760638,7058.783372243245,12079281,288
1767760638,7041.4261023203535,12079278,288
1767760638,7017.337481180827,12079272,288
1767760638,6989.450454711914,12079266,288
1767760638,6961.515347162883,12079259,288
1767760638,6936.8016719818115,12079255,288
1767760638,6917.184591293335,12079253,288
1767760638,6902.519861857097,12079245,288
1767760638,6891.653537750244,12079244,288
1767760638,6882.037321726481,12079243,288
1767760638,6871.892213821411,12079244,288
1767760638,6860.208511352539,12079240,288
1767760638,6847.851673762004,12079241,288
1767760638,6837.225755055745,12079239,288
1767760638,6830.927133560181,12079240,288
1767760638,6830.590565999349,12079237,288
1767760638,6844.774484634399,12079240,288
1767760638,6854.1983763376875,12079238,288
1767760638,6861.458619435628,12079241,288
1767760638,6864.343484242757,12079243,288
1767760638,6862.564484278361,12079244,288
1767760638,6857.32364654541,12079248,288
1767760638,6851.265430450439,12079253,288
1767760638,6847.130457560222,12079255,288
1767760638,6846.457322438558,12079260,288
1767760638,6849.342187245687,12079263,288
1767760638,6854.4868628184,12079267,288
1767760638,6860.641241073608,12079270,288
1767760638,6866.074403127034,12079278,288
1767760638,6869.824727376302,12079285,288
1767760638,6871.796051661174,12079286,288
1767760638,6872.709592183431,12079292,288
1767760638,6874.152024586995,12079299,288
1767760638,6877.710024515788,12079302,288
1767760638,6884.489456812541,12079307,288
1767760638,6894.297997156779,12079312,288
1767760638,6905.933618545532,12079316,288
1767760638,6927.281618118286,12079327,288
1767760638,6932.522455851237,12079333,288
1767760638,6932.330131530762,12079333,288
1767760638,6926.945050557454,12079340,288
1767760638,6912.039915720622,12079351,288
1767760638,6909.780104955037,12079355,288
1767760638,6913.963158925374,12079363,288
1767760638,6924.252510070801,12079365,288
1767760638,6937.907536824544,12079372,288
1767760638,6951.0817527771,12079377,288
1767760638,6959.784428278605,12079382,288
1767760638,6961.659590403239,12079385,288
1767760638,6956.995725631714,12079388,288
1767760638,6948.485374450684,12079391,288
1767760638,6939.830780029297,12079400,288
1767760638,6933.484077453613,12079401,288
1767760638,6929.493347803752,12079404,288
1767760638,6925.983428955078,12079409,288
1767760638,6920.406023661296,12079416,288
1767760638,6910.789807637532,12079418,288
1767760638,6897.471348444621,12079424,288
1767760638,6882.950862248738,12079425,288
1767760638,6870.978673299153,12079427,288
1767760638,6865.112781524658,12079434,288
1767760638,6866.5071328481035,12079437,288
1767760638,6873.6231327056885,12079442,288
1767760638,6882.950862248738,12079446,288
1767760638,6890.932321548462,12079450,288
1767760638,6896.125078201294,12079455,288
1767760638,6898.9137808481855,12079457,288
1767760638,6901.029348373413,12079461,288
1767760638,6903.048753738403,12079468,288
1767760638,6904.106537501018,12079467,288
1767760638,6901.365915934245,12079474,288
1767760638,6892.23051071167,12079476,288
1767760638,6876.892646153768,12079484,288
1767760638,6859.968105951945,12079484,288
1767760638,6850.784619649251,12079488,288
1767760638,6860.593159993489,12079491,288
1767760638,6896.750132242839,12079495,288
1767760638,6958.149671554565,12079500,288
1767760638,7032.146453857422,12079503,288
1767760638,7098.065614700317,12079509,288
1767760638,7132.87631670634,12079509,288
1767760638,7119.846343994141,12079512,176
1767760638,7055.033047993978,12079516,176
1767760638,6950.216293334961,12079520,176
1767760638,6829.869349797566,12079521,176
1767760638,6723.129351933797,12079522,176
1767760638,6654.565731684367,12079524,176
1767760638,6635.717948277791,12079520,176
1767760638,6662.4510288238525,12079525,176
1767760638,6718.032757441203,12079523,176
1767760638,6780.778566996257,12079524,176
1767760638,6869.151592254639,12079522,176
1767760638,6864.2473220825195,12079523,176
1767760638,6857.804457346599,12079514,176
1767760638,6858.285268147786,12079517,176
1767760638,6868.189970652263,12079509,176
1767760638,6883.768240610759,12079506,176
1767760638,6898.384888966878,12079506,176
1767760638,6906.558672587077,12079500,176
1767760638,6906.222105026245,12079490,176
1767760638,6899.442672729492,12079485,176
1767760638,6890.980402628581,12079478,176
1767760638,6885.499159495036,12079476,176
1767760638,6885.691483815511,12079463,176
1767760638,6890.836159388225,12079461,176
1767760638,6897.327105204265,12079445,176
1767760638,6900.500456492106,12079441,176
1767760638,6897.327105204265,12079431,176
1767760638,6887.903213500977,12079420,176
1767760638,6875.065565109253,12079409,176
1767760638,6863.4299437205,12079404,176
1767760638,6857.035160064697,12079388,176
1767760638,6858.621835708618,12079380,176
1767760638,6884.681781133016,12079352,176
1767760638,6903.914213180542,12079347,176
1767760638,6922.66583442688,12079332,176
1767760638,6938.821077346802,12079321,176
1767760638,6951.754887898763,12079311,176
1767760638,6962.525049845378,12079301,176
1767760638,6972.95864423116,12079287,176
1767760638,6984.450022379558,12079274,176
1767760638,6997.912724812825,12079264,176
1767760638,7013.53907585144,12079254,176
1767760638,7030.7521025339765,12079244,176
1767760638,7047.628561655681,12079231,176
1767760638,7062.1490478515625,12079222,176
1767760638,7072.39031791687,12079211,176
1767760638,7077.294588088989,12079199,176
1767760638,7076.669534047444,12079194,300
1767760638,7070.659399032593,12079184,300
1767760638,7060.129642486572,12079178,300
1767760638,7045.993804931641,12079167,300
1767760638,7029.501994450887,12079162,300
1767760638,7011.711994806926,12079154,300
1767760638,6993.248860041301,12079149,300
1767760638,6974.449157714844,12079144,300
1767760638,6955.216725667317,12079140,300
1767760638,6935.791969299316,12079135,300
1767760638,6916.799942652385,12079134,300
1767760638,6898.5772132873535,12079130,300
1767760638,6881.604592005412,12079127,300
1767760638,6866.459051767985,12079126,300
1767760638,6853.813727696736,12079128,300
1767760638,6844.582160313924,12079122,300
1767760638,6838.764349619548,12079124,300
1767760638,6836.408376693726,12079124,300
1767760638,6836.600701014201,12079124,300
1767760638,6838.812430699666,12079126,300
1767760638,6842.418511708577,12079132,300
1767760638,6846.264998118083,12079133,300
1767760638,6849.390268325806,12079136,300
1767760638,6851.21734937032,12079144,300
1767760638,6851.553916931152,12079144,300
1767760638,6850.928862889607,12079151,300
1767760638,6849.967241287231,12079155,300
1767760638,6849.101781845093,12079159,300
1767760638,6849.294106165568,12079162,300
1767760638,6851.169268290202,12079169,300
1767760638,6854.871511459351,12079178,300
1767760638,6860.304673512776,12079178,300
1767760638,6866.555213928223,12079191,300
1767760638,6872.709592183431,12079191,300
1767760638,6878.527402877808,12079204,300
1767760638,6883.72015953064,12079207,300
1767760638,6888.624429702759,12079214,300
1767760638,6893.672943115234,12079222,300
1767760638,6898.769537607829,12079227,300
1767760638,6904.298861821492,12079234,300
1767760638,6910.020510355632,12079240,300
1767760638,6915.35751024882,12079247,300
1767760638,6919.588645299275,12079253,300
1767760638,6922.185023625691,12079260,300
1767760638,6923.194726308187,12079266,300
1767760638,6922.66583442688,12079276,300
1767760638,6920.64642906189,12079282,300
1767760638,6916.944185892741,12079285,300
1767760638,6911.126375198364,12079292,300
1767760638,6903.57764561971,12079294,300
1767760638,6895.548105239868,12079305,300
1767760638,6888.57634862264,12079307,300
1767760638,6884.681781133016,12079312,300
1767760638,6885.402997334798,12079320,300
1767760638,6891.990105311076,12079324,300
1767760638,6903.769969940186,12079333,300
1767760638,6918.627023696899,12079333,300
1767760638,6933.387915293376,12079342,300
1767760638,6945.360104242961,12079348,300
1767760638,6953.341563542684,12079353,300
1767760638,6957.5246175130205,12079359,300
1767760638,6959.063212076823,12079364,300
1767760638,6958.870887756348,12079367,300
1767760638,6956.8995634714765,12079371,300
1767760638,6952.28377978007,12079377,300
1767760639,6914.924780527751,12079393,300
1767760639,6898.048321406047,12079397,300
1767760639,6884.585618972778,12079405,300
1767760639,6877.758105595906,12079406,300
1767760639,6878.094673156738,12079411,300
1767760639,6881.219943364461,12079435,300
1767760639,6871.219078699748,12079442,300
1767760639,6861.9875113169355,12079450,300
1767760639,6858.669916788737,12079456,300
1767760639,6864.1992410024,12079460,300
1767760639,6876.79648399353,12079464,300
1767760639,6890.643835067749,12079471,300
1767760639,6898.5772132873535,12079482,300
1767760639,6896.365483601888,12079488,300
1767760639,6886.556943257649,12079493,300
1767760639,6878.286997477214,12079498,300
1767760639,6884.152889251709,12079503,300
1767760639,6913.818915685018,12079508,300
1767760639,6968.679428100586,12079517,300
1767760639,7038.8297239939375,12079519,300
1767760639,7104.171911875407,12079525,300
1767760639,7140.8577760060625,12079529,300
1767760639,7130.135695139567,12079540,163
1767760639,7065.89937210083,12079544,163
1767760639,6958.77472559611,12079546,163
1767760639,6833.427349726359,12079552,163
1767760639,6720.19640604655,12079556,163
1767760639,6645.238002141316,12079560,163
1767760639,6622.543732325236,12079562,163
1767760639,6883.335510889689,12079572,163
1767760639,6896.125078201294,12079575,163
1767760639,6891.172726949056,12079575,163
1767760639,6889.057159423828,12079555,163
1767760639,6880.065997441609,12079553,163
1767760639,6869.440078735352,12079549,163
1767760639,6862.468322118123,12079542,163
1767760639,6862.516403198242,12079534,163
1767760639,6869.247754414876,12079526,163
1767760639,6879.825592041016,12079520,163
1767760639,6889.970699946086,12079511,163
1767760639,6896.125078201294,12079505,163
1767760639,6896.70205116272,12079495,163
1767760639,6892.663240432739,12079488,163
1767760639,6886.941591898601,12079480,163
1767760639,6882.854700088501,12079466,163
1767760639,6883.143186569214,12079456,163
1767760639,6944.97545560201,12079392,163
1767760639,6957.332293192546,12079378,163
1767760639,6970.746914545695,12079368,163
1767760639,7000.461022059123,12079348,163
1767760639,7015.077670415242,12079334,163
1767760639,7027.530670166016,12079324,163
1767760639,7036.954561869304,12079314,163
1767760639,7043.253183364868,12079303,163
1767760639,7047.340075174968,12079291,163
1767760639,7050.032615661621,12079284,163
1767760639,7051.619291305542,12079277,163
1767760639,7051.715453465779,12079269,163
1767760639,7049.503723780314,12079258,288
1767760639,7044.0224806467695,12079254,288
1767760639,6961.899995803833,12079225,288
1767760639,6943.677266438802,12079219,288
1767760639,6927.858591079712,12079219,288
1767760639,6902.4717807769775,12079212,288
1767760639,6891.557375590007,12079214,288
1767760639,6880.88337580363,12079210,288
1767760639,6869.872808456421,12079210,288
1767760639,6858.477592468262,12079211,288
1767760639,6847.370862960815,12079211,288
1767760639,6837.418079376221,12079213,288
1767760639,6829.388538996379,12079215,288
1767760639,6827.753782272339,12079226,288
1767760639,6836.167971293132,12079231,288
1767760639,6846.505403518677,12079237,288
1767760639,6856.746673583984,12079238,288
1767760639,6865.064700444539,12079242,288
1767760639,6870.449781417847,12079244,288
1767760639,6872.75767326355,12079254,288
1767760639,6872.709592183431,12079259,288
1767760639,6872.228781382243,12079261,288
1767760639,6873.334646224976,12079267,288
1767760639,6877.661943435669,12079275,288
1767760639,6884.9702676137285,12079278,288
1767760639,6893.480618794759,12079285,288
1767760639,6900.596618652344,12079293,288
1767760639,6903.914213180542,12079302,288
1767760639,6900.019645690918,12079310,288
1767760639,6894.874970118205,12079313,288
1767760639,6891.268889109294,12079320,288
1767760639,6891.365051269531,12079324,288
1767760639,6920.790672302246,12079349,288
1767760639,6917.424996693929,12079356,288
1767760639,6910.789807637532,12079356,288
1767760639,6896.221240361531,12079373,288
1767760639,6901.413997014363,12079379,288
1767760639,6908.193429311116,12079381,288
1767760639,6914.251645406087,12079381,288
1767760639,6918.146212895711,12079384,288
1767760639,6919.3001588185625,12079388,288
1767760639,6917.713483174642,12079394,288
1767760639,6913.963158925374,12079399,288
1767760639,6909.155050913493,12079400,288
1767760639,6904.923915863037,12079399,288
1767760639,6902.952591578166,12079403,288
1767760639,6904.250780741374,12079409,288
1767760639,6909.058888753255,12079408,288
1767760639,6916.367212931315,12079416,288
1767760639,6924.540996551514,12079415,288
1767760639,6931.656996409099,12079421,288
1767760639,6936.128536860148,12079424,288
1767760639,6936.945915222168,12079428,288
1767760639,6934.83034769694,12079430,288
1767760639,6931.368509928386,12079434,288
1767760639,6928.483645121257,12079434,288
1767760639,6926.945050557454,12079438,288
1767760639,6925.839185714722,12079446,288
1767760639,6922.858158747355,12079449,288
1767760639,6915.838321050008,12079453,288
1767760639,6904.202699661255,12079453,288
1767760639,6889.4898891448975,12079464,288
1767760639,6875.065565109253,12079463,288
1767760639,6865.305105845134,12079468,288
1767760639,6863.4299437205,12079474,288
1767760639,6869.872808456421,12079476,288
1767760639,6881.556510925293,12079481,288
1767760639,6893.0478890736895,12079486,288
1767760639,6899.298429489136,12079490,288
1767760639,6898.096402486165,12079493,288
1767760639,6891.461213429769,12079500,288
1767760639,6883.912483851115,12079506,288
1767760639,6880.306402842204,12079510,288
1767760639,6882.758537928264,12079516,288
1767760639,6889.201402664185,12079521,288
1767760639,6894.586483637492,12079526,288
1767760639,6892.855564753215,12079531,288
1767760639,6881.844997406006,12079532,288
1767760639,6865.593592325847,12079541,288
1767760639,6855.015754699707,12079547,288
1767760639,6863.093376159668,12079546,288
1767760639,6899.490753809611,12079550,288
1767760639,7117.009560267131,12079562,288
1767760639,7159.897883733113,12079565,288
1767760639,7153.599262237549,12079569,147
1767760639,7092.9209391276045,12079571,147
1767760639,6989.21004931132,12079577,147
1767760639,6866.747538248698,12079574,147
1767760639,6755.295594533284,12079574,147
1767760639,6679.56789334615,12079574,147
1767760639,6651.921272277832,12079573,147
1767760639,6669.5670286814375,12079579,147
1767760639,6717.600027720134,12079573,147
1767760639,6775.922377904256,12079571,147
1767760639,6826.695998509725,12079568,147
1767760639,6859.439214070638,12079571,147
1767760639,6873.575051625569,12079565,147
1767760639,6875.402132670085,12079565,147
1767760639,6881.219943364461,12079547,147
1767760639,6889.249483744304,12079544,147
1767760639,6895.06729443868,12079532,147
1767760639,6895.6442674001055,12079526,147
1767760639,6890.884240468343,12079515,147
1767760639,6876.267592112224,12079482,147
1767760639,6881.4122676849365,12079472,147
1767760639,6886.12421353658,12079462,147
1767760639,6887.326240539551,12079453,147
1767760639,6884.249051411946,12079444,147
1767760639,6878.575483957927,12079427,147
1767760639,6873.334646224976,12079416,147
1767760639,6871.267159779866,12079406,147
1767760639,6873.9597002665205,12079395,147
1767760639,6880.979537963867,12079382,147
1767760639,6890.980402628581,12079371,147
1767760639,6901.702483495076,12079352,147
1767760639,6911.366780598958,12079345,147
1767760639,6919.348239898682,12079338,147
1767760639,6926.7527262369795,12079321,147
1767760639,6935.407320658366,12079311,147
1767760639,6994.739373524983,12079261,147
1767760639,7011.51967048645,12079248,147
1767760639,7026.088237762451,12079241,147
1767760639,7037.291129430135,12079229,147
1767760639,7044.455210367839,12079216,147
1767760639,7047.628561655681,12079207,147
1767760639,7044.936021169026,12079190,306
1767760639,7040.416399637858,12079181,306
1767760639,7034.310102462769,12079174,306
1767760639,7027.049859364827,12079167,306
1767760639,7018.779913584392,12079158,306
1767760639,7009.0194543202715,12079153,306
1767760639,6997.335751851399,12079150,306
1767760639,6983.392238616943,12079147,306
1767760639,6967.477401097615,12079136,306
1767760639,6950.841347376506,12079139,306
1767760639,6934.782266616821,12079132,306
1767760639,6920.406023661296,12079133,306
1767760639,6908.097267150879,12079129,306
1767760639,6897.711753845215,12079128,306
1767760639,6888.14361890157,12079130,306
1767760639,6878.383159637451,12079130,306
1767760639,6867.084105809529,12079130,306
1767760639,6854.534943898519,12079133,306
1767760639,6842.178106307983,12079134,306
1767760639,6832.321484883626,12079137,306
1767760639,6827.128728230794,12079139,306
1767760639,6827.465295791626,12079143,306
1767760640,6832.273403803508,12079145,306
1767760640,6839.48556582133,12079149,306
1767760640,6846.313079198201,12079157,306
1767760640,6850.255727767944,12079161,306
1767760640,6850.351889928182,12079166,306
1767760640,6847.418944040935,12079172,306
1767760640,6850.111484527588,12079190,306
1767760640,6861.362457275391,12079204,306
1767760640,6876.075267791748,12079203,306
1767760640,6890.980402628581,12079211,306
1767760640,6902.664105097453,12079220,306
1767760640,6909.010807673137,12079227,306
1767760640,6909.635861714681,12079233,306
1767760640,6906.125942866008,12079243,306
1767760640,6901.606321334839,12079247,306
1767760640,6898.817618687947,12079258,306
1767760640,6899.298429489136,12079265,306
1767760640,6902.231375376384,12079275,306
1767760640,6905.885537465413,12079279,306
1767760640,6908.241510391235,12079288,306
1767760640,6908.481915791829,12079292,306
1767760640,6907.135645548503,12079303,306
1767760640,6905.741294225057,12079309,306
1767760640,6906.077861785889,12079319,306
1767760640,6909.443537394206,12079325,306
1767760640,6915.79023996989,12079328,306
1767760640,6923.098564147949,12079337,306
1767760640,6928.531726201375,12079344,306
1767760640,6929.204861323039,12079351,306
1767760640,6924.396753311157,12079353,306
1767760640,6915.35751024882,12079360,306
1767760640,6905.21240234375,12079372,306
1767760640,6908.770402272542,12079399,306
1767760640,6915.020942687988,12079401,306
1767760640,6918.0019696553545,12079402,306
1767760640,6915.4055913289385,12079416,306
1767760640,6913.578510284424,12079422,306
1767760640,6913.530429204305,12079430,306
1767760640,6915.309429168701,12079431,306
1767760640,6917.953888575236,12079439,306
1767760640,6919.9732939402265,12079442,306
1767760640,6920.069456100464,12079449,306
1767760640,6917.953888575236,12079451,306
1767760640,6914.347807566325,12079457,306
1767760640,6911.222537358602,12079458,306
1767760640,6910.164753595988,12079467,306
1767760640,6911.414861679077,12079468,306
1767760640,6913.578510284424,12079478,306
1767760640,6914.4439697265625,12079482,306
1767760640,6912.232240041097,12079487,306
1767760640,6906.750996907552,12079489,306
1767760640,6899.779240290324,12079495,306
1767760640,6893.961429595947,12079502,306
1767760640,6891.701618830363,12079505,306
1767760640,6894.057591756185,12079509,306
1767760640,6899.8754024505615,12079516,306
1767760640,6901.894807815552,12079530,306
1767760640,6891.076564788818,12079536,306
1767760640,6878.623565038045,12079539,306
1767760640,6870.017051696777,12079550,306
1767760640,6868.815024693807,12079555,306
1767760640,6875.209808349609,12079556,306
1767760640,6884.9702676137285,12079565,306
1767760640,6891.557375590007,12079569,306
1767760640,6889.297564824422,12079577,306
1767760640,6876.988808314006,12079575,306
1767760640,6860.0161870320635,12079578,306
1767760640,6849.678754806519,12079587,306
1767760640,6859.0545654296875,12079590,306
1767760640,6896.798213322957,12079593,306
1767760640,6961.61150932312,12079597,306
1767760640,7040.7529671986895,12079606,306
1767760640,7149.656613667806,12079609,142
1767760640,7091.47850672404,12079617,142
1767760640,6990.940968195598,12079620,142
1767760640,6871.12291653951,12079618,142
1767760640,6760.392189025879,12079615,142
1767760640,6683.125893274943,12079617,142
1767760640,6652.305920918782,12079619,142
1767760640,6666.730244954427,12079622,142
1767760640,6713.224649429321,12079614,142
1767760640,6772.172053654988,12079619,142
1767760640,6825.397809346517,12079613,142
1767760640,6860.881646474202,12079609,142
1767760640,6876.075267791748,12079606,142
1767760640,6876.315673192342,12079600,142
1767760640,6870.834430058797,12079600,142
1767760640,6868.093808492024,12079590,142
1767760640,6871.9883759816485,12079586,142
1767760640,6881.604592005412,12079579,142
1767760640,6893.144051233928,12079571,142
1767760640,6902.087132136027,12079562,142
1767760640,6905.5970509847,12079554,142
1767760640,6903.241078058879,12079547,142
1767760640,6896.894375483195,12079531,142
1767760640,6889.39372698466,12079526,142
1767760640,6882.998943328857,12079517,142
1767760640,6878.575483957927,12079501,142
1767760640,6875.498294830322,12079488,142
1767760640,6872.998078664144,12079477,142
1767760640,6870.786348978679,12079467,142
1767760640,6869.92088953654,12079449,142
1767760640,6871.603727340698,12079437,142
1767760640,6876.363754272461,12079421,142
1767760640,6899.154186248779,12079380,142
1767760640,6903.721888860066,12079361,142
1767760640,6905.5970509847,12079349,142
1767760640,6906.222105026245,12079334,142
1767760640,6908.9146455128985,12079318,142
1767760640,6916.992266972859,12079302,142
1767760640,6932.378212610881,12079290,142
1767760640,6954.399347305298,12079275,142
1767760640,6979.834238688151,12079259,142
1767760640,7004.307508468628,12079246,142
1767760640,7023.684183756511,12079236,142
1767760640,7035.223642985026,12079215,142
1767760640,7038.541237513225,12079204,142
1767760640,7035.608291625977,12079191,319
1767760640,7029.982805252075,12079179,319
1767760640,7025.655508041382,12079165,319
1767760640,7024.8862107594805,12079155,319
1767760640,7027.915318806966,12079139,319
1767760640,7032.771507898967,12079135,319
1767760640,7036.425669987996,12079122,319
1767760640,7036.041021347046,12079109,2143
1767760640,7029.598156611125,12079101,2143
1767760640,7016.664346059163,12079091,2143
1767760640,6998.441616694133,12079081,2143
1767760640,6977.43018468221,12079080,2143
1767760640,6956.659158070882,12079068,2143
1767760640,6938.388347625732,12079063,2143
1767760640,6923.435131708781,12079057,2143
1767760640,6911.366780598958,12079054,2143
1767760640,6901.1735916137695,12079047,2143
1767760640,6891.461213429769,12079039,2143
1767760640,6881.171862284343,12079037,2143
1767760640,6869.92088953654,12079036,2143
1767760640,6857.804457346599,12079031,2143
1767760640,6845.97651163737,12079034,2143
1767760640,6835.879484812419,12079027,2143
1767760640,6828.667322794597,12079020,2143
1767760640,6824.580430984497,12079025,2143
1767760640,6826.744079589844,12079024,2143
1767760640,6830.734809239705,12079020,2143
1767760640,6835.3986740112305,12079026,2143
1767760640,6839.87021446228,12079024,2143
1767760640,6843.716700871785,12079027,2143
1767760640,6846.986214319865,12079023,2143
1767760640,6850.44805208842,12079027,2143
1767760640,6854.91959253947,12079026,2143
1767760640,6860.496997833252,12079029,2143
1767760640,6867.084105809529,12079027,2143
1767760640,6896.365483601888,12079036,2143
1767760640,6899.779240290324,12079037,2143
1767760640,6903.625726699829,12079037,2143
1767760640,6908.193429311116,12079038,2143
1767760640,6913.530429204305,12079044,2143
1767760640,6918.627023696899,12079039,2143
1767760640,6928.77213160197,12079047,2143
1767760640,6929.301023483276,12079044,2143
1767760640,6929.926077524821,12079042,2143
1767760640,6923.002401987712,12079039,2143
1767760640,6915.309429168701,12079040,2143
1767760640,6906.077861785889,12079042,2143
1767760640,6897.08669980367,12079039,2143
1767760640,6890.21110534668,12079039,2143
1767760640,6886.412700017293,12079034,2143
1767760640,6885.547240575154,12079033,2143
1767760640,6887.181997299194,12079033,2143
1767760640,6889.730294545491,12079030,2143
1767760640,6892.182429631551,12079029,2143
1767760640,6893.961429595947,12079026,2143
1767760640,6895.692348480225,12079024,2143
1767760640,6898.384888966878,12079022,2143
1767760640,6902.327537536621,12079019,2143
1767760640,6906.84715906779,12079023,2143
1767760640,6910.645564397176,12079014,2143
1767760640,6912.08799680074,12079013,2143
1767760640,6910.789807637532,12079011,2143
1767760640,6907.568375269572,12079006,2143
1767760640,6904.106537501018,12079006,2143
1767760640,6902.76026725769,12079006,2143
1767760640,6905.21240234375,12078998,2143
1767760640,6911.991834640503,12078999,2143
1767760640,6921.84845606486,12078996,2143
1767760640,6932.137807210286,12078990,2143
1767760640,6940.311590830485,12078987,2143
1767760640,6944.686969121297,12078985,2143
1767760640,6945.119698842366,12078982,2143
1767760640,6942.330996195476,12078981,2143
1767760640,6936.945915222168,12078980,2143
1767760640,6928.916374842326,12078979,2143
1767760640,6918.098131815593,12078973,2143
1767760640,6904.875834782918,12078970,2143
1767760640,6890.7880783081055,12078970,2143
1767760640,6878.8158893585205,12078968,2143
1767760640,6872.75767326355,12078967,2143
1767760640,6888.335943222046,12078962,2143
1767760640,6906.750996907552,12078960,2143
1767760640,6923.675537109375,12078957,2143
1767760640,6930.887699127197,12078960,2143
1767760640,6923.194726308187,12078958,2143
1767760640,6901.1735916137695,12078957,2143
1767760640,6871.507565180461,12078953,2143
1767760640,6844.8225657145185,12078951,2143
1767760640,6830.734809239705,12078954,2143
1767760640,6834.004322687785,12078955,2143
1767760640,6851.65007909139,12078951,2143
1767760640,6873.719294865926,12078954,2143
1767760640,6888.191699981689,12078952,2143
1767760640,6853.092511494954,12078956,2143
1767760640,6848.572889963786,12078949,2143
1767760640,6873.238484064738,12078950,2143
1767760640,6932.81094233195,12078952,2143
1767760640,7018.44334602356,12078946,2143
1767760640,7108.691533406575,12078948,2143
1767760640,7174.995342890422,12078950,2143
1767760640,7192.6891803741455,12078947,2143
1767760640,7150.2335866292315,12078949,139
1767760641,7054.071426391602,12078945,139
1767760641,6927.233537038167,12078944,139
1767760641,6801.30918820699,12078942,139
1767760641,6705.435514450073,12078938,139
1767760641,6699.713865915935,12078926,139
1767760641,6756.930351257324,12078928,139
1767760641,6810.829242070516,12078922,139
1767760641,6848.236322402954,12078917,139
1767760641,6865.88207880656,12078912,139
1767760641,6869.488159815471,12078909,139
1767760641,6868.478457132976,12078899,139
1767760641,6870.545943578084,12078894,139
1767760641,6878.575483957927,12078891,139
1767760641,6889.970699946086,12078878,139
1767760641,6899.298429489136,12078875,139
1767760641,6901.413997014363,12078865,139
1767760641,6894.24991607666,12078856,139
1767760641,6880.306402842204,12078847,139
1767760641,6865.257024765015,12078835,139
1767760641,6855.256160100301,12078826,139
1767760641,6854.4868628184,12078816,139
1767760641,6862.516403198242,12078804,139
1767760641,6875.354051589966,12078793,139
1767760641,6887.37432161967,12078784,139
1767760641,6893.817186355591,12078768,139
1767760641,6892.518997192383,12078756,139
1767760641,6884.729862213135,12078744,139
1767760641,6874.296267827352,12078730,139
1767760641,6881.941159566243,12078679,139
1767760641,6898.048321406047,12078662,139
1767760641,6914.4439697265625,12078651,139
1767760641,6928.868293762207,12078634,139
1767760641,6940.263509750366,12078625,139
1767760641,6962.42888768514,12078584,139
1767760641,6970.1699415842695,12078575,139
1767760641,6979.88231976827,12078563,139
1767760641,6991.66218439738,12078550,139
1767760641,7005.365292231242,12078540,139
1767760641,7020.510832468669,12078530,139
1767760641,7036.569913228353,12078519,139
1767760641,7052.292426427205,12078509,139
1767760641,7065.370480219523,12078500,139
1767760641,7073.015371958415,12078491,139
1767760641,7073.303858439128,12078484,139
1767760641,7065.370480219523,12078475,288
1767760641,7050.08069674174,12078471,288
1767760641,7029.7904809316,12078466,288
1767760641,7007.528940836589,12078457,288
1767760641,6986.37326558431,12078453,288
1767760641,6968.294779459636,12078450,288
1767760641,6925.358374913533,12078441,288
1767760641,6908.385753631592,12078439,288
1767760641,6889.249483744304,12078441,288
1767760641,6869.968970616658,12078436,288
1767760641,6853.5252412160235,12078439,288
1767760641,6842.803160349528,12078442,288
1767760641,6839.533646901448,12078440,288
1767760641,6851.746241251628,12078446,288
1767760641,6861.025889714559,12078450,288
1767760641,6867.228349049886,12078453,288
1767760641,6867.997646331787,12078454,288
1767760641,6863.045295079549,12078461,288
1767760641,6853.717565536499,12078467,288
1767760641,6842.803160349528,12078471,288
1767760641,6832.99462000529,12078478,288
1767760641,6827.032566070557,12078485,288
1767760641,6826.8883228302,12078489,288
1767760641,6833.283106486003,12078497,288
1767760641,6845.495700836182,12078500,288
1767760641,6861.41053835551,12078505,288
1767760641,6878.142754236857,12078518,288
1767760641,6892.807483673096,12078522,288
1767760641,6902.519861857097,12078534,288
1767760641,6905.837456385295,12078540,288
1767760641,6902.80834833781,12078544,288
1767760641,6895.692348480225,12078552,288
1767760641,6888.384024302165,12078564,288
1767760641,6884.585618972778,12078568,288
1767760641,6886.653105417888,12078573,288
1767760641,6894.538402557373,12078583,288
1767760641,6925.646861394246,12078613,288
1767760641,6920.64642906189,12078621,288
1767760641,6912.136077880859,12078627,288
1767760641,6903.721888860066,12078632,288
1767760641,6899.009943008423,12078636,288
1767760641,6899.442672729492,12078643,288
1767760641,6903.818051020305,12078653,288
1767760641,6909.539699554443,12078658,288
1767760641,6913.290023803711,12078664,288
1767760641,6912.713050842285,12078669,288
1767760641,6907.135645548503,12078680,288
1767760641,6897.952159245809,12078681,288
1767760641,6888.384024302165,12078694,288
1767760641,6882.277727127075,12078697,288
1767760641,6882.518132527669,12078704,288
1767760641,6889.970699946086,12078707,288
1767760641,6903.144915898641,12078714,288
1767760641,6918.723185857137,12078722,288
1767760641,6932.714780171712,12078728,288
1767760641,6941.032807032268,12078730,288
1767760641,6940.984725952148,12078739,288
1767760641,6931.368509928386,12078743,288
1767760641,6914.251645406087,12078749,288
1767760641,6893.672943115234,12078755,288
1767760641,6875.065565109253,12078761,288
1767760641,6863.478024800618,12078765,288
1767760641,6862.324078877767,12078778,288
1767760641,6872.3730246226,12078778,288
1767760641,6935.1669152577715,12078798,288
1767760641,6948.100725809733,12078808,288
1767760641,6950.697104136149,12078817,288
1767760641,6943.629185358684,12078819,288
1767760641,6931.17618560791,12078822,288
1767760641,6919.01167233785,12078832,288
1767760641,6912.039915720622,12078843,288
1767760641,6912.857294082642,12078849,288
1767760641,6921.03107770284,12078853,288
1767760641,6932.137807210286,12078860,288
1767760641,6940.744320551555,12078870,288
1767760641,6941.705942153931,12078879,288
1767760641,6933.099428812663,12078888,288
1767760641,6916.944185892741,12078891,288
1767760641,6897.855997085571,12078901,288
1767760641,6881.219943364461,12078906,288
1767760641,6870.882511138916,12078918,288
1767760641,6867.372592290242,12078927,288
1767760641,6868.141889572144,12078934,288
1767760641,6869.055430094401,12078938,288
1767760641,6866.26672744751,12078952,288
1767760641,6859.198808670044,12078961,288
1767760641,6850.880781809489,12078966,288
1767760641,6847.370862960815,12078971,288
1767760641,6854.054133097331,12078980,288
1767760641,6872.3730246226,12078985,288
1767760641,6897.855997085571,12078998,288
1767760641,6921.319564183553,12079002,288
1767760641,6932.282050450643,12079014,288
1767760641,6923.964023590088,12079016,288
1767760641,6897.134780883789,12079026,288
1767760641,6861.939430236816,12079036,288
1767760641,6835.494836171468,12079041,288
1767760641,6835.542917251587,12079049,288
1767760641,6872.901916503906,12079056,288
1767760641,6945.696671803792,12079060,288
1767760641,7037.675778071086,12079067,288
1767760641,7122.827370961507,12079068,288
1767760641,7174.177964528401,12079073,288
1767760641,7172.495126724243,12079080,135
1767760641,7113.499641418457,12079084,135
1767760641,7009.932994842529,12079087,135
1767760641,6887.326240539551,12079088,135
1767760641,6776.018540064494,12079093,135
1767760641,6700.387001037598,12079096,135
1767760641,6672.30765024821,12079095,135
1767760641,6688.414812088013,12079098,135
1767760641,6733.611027399699,12079101,135
1767760641,6788.423458735148,12079099,135
1767760641,6835.44675509135,12079097,135
1767760641,6864.824295043945,12079097,135
1767760641,6875.642538070679,12079095,135
1767760641,6873.863538106282,12079092,135
1767760641,6868.189970652263,12079095,135
1767760641,6865.401268005371,12079085,135
1767760641,6874.103943506877,12079080,135
1767760641,6880.306402842204,12079077,135
1767760641,6883.6720784505205,12079067,135
1767760641,6883.479754130046,12079064,135
1767760641,6880.835294723511,12079056,135
1767760641,6877.998510996501,12079051,135
1767760641,6876.892646153768,12079040,135
1767760641,6878.286997477214,12079036,135
1767760641,6881.316105524699,12079028,135
1767760641,6884.0086460113525,12079018,135
1767760641,6884.92218653361,12079011,135
1767760641,6883.6720784505205,12079003,135
1767760641,6881.460348765056,12078994,135
1767760641,6879.7775109608965,12078986,135
1767760641,6879.585186640422,12078971,135
1767760641,6880.787213643392,12078968,135
1767760641,6882.614294687907,12078956,135
1767760641,6884.297132492065,12078950,135
1767760641,6885.306835174561,12078936,135
1767760641,6886.364618937175,12078928,135
1767760641,6888.864835103353,12078916,135
1767760641,6894.923051198323,12078905,135
1767760641,6906.125942866008,12078899,135
1767760641,6922.954320907593,12078890,135
1767760641,6944.254239400228,12078880,135
1767760641,6967.429320017497,12078873,135
1767760641,6989.883184432983,12078863,135
1767760641,7009.6925894419355,12078852,135
1767760641,7025.895913441976,12078845,135
1767760641,7038.685480753581,12078839,135
1767760641,7048.686345418294,12078832,135
1767760641,7056.908210118611,12078823,135
1767760641,7064.072291056315,12078812,135
1767760641,7070.082426071167,12078812,135
1767760641,7073.592344919841,12078804,135
1767760641,7072.582642237346,12078799,288
1767760641,7065.418561299642,12078797,288
1767760641,7051.28272374471,12078790,288
1767760641,7030.7521025339765,12078788,288
1767760641,7005.365292231242,12078784,288
1767760641,6977.766752243042,12078784,288
1767760641,6951.177914937337,12078778,288
1767760641,6928.291320800781,12078782,288
1767760641,6911.174456278483,12078775,288
1767760641,6899.5388348897295,12078776,288
1767760641,6892.0862674713135,12078774,288
1767760641,6886.701186498006,12078774,288
1767760641,6881.364186604817,12078777,288
1767760641,6875.065565109253,12078780,288
1767760641,6867.516835530599,12078781,288
1767760641,6859.487295150757,12078785,288
1767760641,6852.323214213054,12078789,288
1767760641,6847.803592681885,12078791,288
1767760641,6846.79388999939,12078797,288
1767760641,6849.053700764974,12078794,288
1767760641,6853.140592575073,12078798,288
1767760641,6857.179403305054,12078809,288
1767760641,6859.439214070638,12078810,288
1767760641,6858.814160029094,12078817,288
1767760641,6854.775349299113,12078823,288
1767760641,6847.851673762004,12078827,288
1767760641,6839.6298090616865,12078839,288
1767760641,6832.850376764934,12078841,288
1767760641,6830.013593037923,12078846,288
1767760641,6832.850376764934,12078851,288
1767760641,6841.50497118632,12078860,288
1767760641,6854.91959253947,12078868,288
1767760641,6870.642105738322,12078871,288
1767760641,6885.835727055867,12078883,288
1767760641,6897.855997085571,12078888,288
1767760641,6904.779672622681,12078896,288
1767760641,6906.654834747314,12078905,288
1767760641,6905.452807744344,12078910,288
1767760641,6903.769969940186,12078917,288
1767760641,6903.481483459473,12078923,288
1767760642,6905.500888824463,12078929,288
1767760642,6909.106969833374,12078936,288
1767760642,6913.097699483235,12078946,288
1767760642,6915.549834569295,12078950,288
1767760642,6915.453672409058,12078961,288
1767760642,6912.472645441691,12078964,288
1767760642,6908.04918607076,12078970,288
1767760642,6904.250780741374,12078980,288
1767760642,6903.000672658284,12078988,288
1767760642,6904.779672622681,12078995,288
1767760642,6908.9146455128985,12079000,288
1767760642,6914.059321085612,12079005,288
1767760642,6918.867429097493,12079011,288
1767760642,6922.28118578593,12079022,288
1767760642,6924.444834391276,12079031,288
1767760642,6923.435131708781,12079038,288
1767760642,6921.656131744385,12079044,288
1767760642,6919.252077738444,12079051,288
1767760642,6915.7421588897705,12079060,288
1767760642,6910.8859697977705,12079067,288
1767760642,6905.164321263631,12079069,288
1767760642,6899.634997049968,12079081,288
1767760642,6895.451943079631,12079086,288
1767760642,6893.3844566345215,12079091,288
1767760642,6892.855564753215,12079100,288
1767760642,6892.951726913452,12079108,288
1767760642,6892.951726913452,12079115,288
1767760642,6891.942024230957,12079125,288
1767760642,6890.259186426799,12079131,288
1767760642,6889.201402664185,12079136,288
1767760642,6890.499591827393,12079145,288
1767760642,6918.482780456543,12079170,288
1767760642,6930.599212646484,12079176,288
1767760642,6938.965320587158,12079185,288
1767760642,6941.513617833455,12079192,288
1767760642,6938.628753026326,12079201,288
1767760642,6923.002401987712,12079228,288
1767760642,6924.540996551514,12079237,288
1767760642,6929.54142888387,12079243,288
1767760642,6933.964888254802,12079254,288
1767760642,6933.147509892781,12079260,288
1767760642,6924.30059115092,12079269,288
1767760642,6907.760699590047,12079281,288
1767760642,6887.614727020264,12079293,288
1767760642,6870.0651327768965,12079298,288
1767760642,6860.6893221537275,12079312,288
1767760642,6862.324078877767,12079320,288
1767760642,6873.719294865926,12079328,288
1767760642,6889.297564824422,12079337,288
1767760642,6901.942888895671,12079347,288
1767760642,6905.452807744344,12079356,288
1767760642,6898.529132207234,12079364,288
1767760642,6884.826024373372,12079374,288
1767760642,6871.651808420817,12079383,288
1767760642,6865.689754486084,12079391,288
1767760642,6869.872808456421,12079398,288
1767760642,6881.027619043986,12079409,288
1767760642,6891.605456670125,12079415,288
1767760642,6892.951726913452,12079424,288
1767760642,6880.354483922322,12079428,288
1767760642,6857.131322224935,12079435,288
1767760642,6835.0621064503985,12079447,288
1767760642,6830.686728159587,12079448,288
1767760642,6858.333349227905,12079459,288
1767760642,7107.970317204793,12079473,288
1767760642,7178.072532018025,12079477,288
1767760642,7198.362747828166,12079481,288
1767760642,7156.82069460551,12079488,132
1767760642,7059.456507364909,12079490,132
1767760642,6929.685672124227,12079493,132
1767760642,6800.587972005208,12079496,132
1767760642,6703.464190165202,12079498,132
1767760642,6657.739082972209,12079497,132
1767760642,6665.720542271932,12079496,132
1767760642,6713.368892669678,12079494,132
1767760642,6777.653296788533,12079495,132
1767760642,6835.302511850993,12079492,132
1767760642,6870.834430058797,12079493,132
1767760642,6880.594889322917,12079486,132
1767760642,6871.844132741292,12079483,132
1767760642,6857.275565465291,12079477,132
1767760642,6849.101781845093,12079471,132
1767760642,6853.044430414836,12079467,132
1767760642,6867.997646331787,12079457,132
1767760642,6887.037754058838,12079452,132
1767760642,6902.76026725769,12079446,132
1767760642,6909.828186035156,12079437,132
1767760642,6907.376050949097,12079424,132
1767760642,6898.481051127116,12079416,132
1767760642,6888.239781061809,12079402,132
1767760642,6881.0757001241045,12079393,132
1767760642,6879.008213678996,12079379,132
1767760642,6880.931456883748,12079369,132
1767760642,6884.056727091472,12079356,132
1767760642,6885.73956489563,12079344,132
1767760642,6884.633700052897,12079329,132
1767760642,6881.508429845174,12079312,132
1767760642,6877.8542677561445,12079302,132
1767760642,6875.065565109253,12079285,132
1767760642,6873.767375946045,12079274,132
1767760642,6874.296267827352,12079257,132
1767760642,6876.315673192342,12079243,132
1767760642,6879.729429880778,12079229,132
1767760642,6885.162591934204,12079214,132
1767760642,6893.7210241953535,12079199,132
1767760642,6907.087564468384,12079186,132
1767760642,6925.694942474365,12079168,132
1767760642,6948.581536610921,12079152,132
1767760642,6973.199049631755,12079142,132
1767760642,6996.277968088786,12079125,132
1767760642,7015.125751495361,12079120,132
1767760642,7028.299967447917,12079100,132
1767760642,7035.84869702657,12079087,132
1767760642,7038.925886154175,12079078,132
1767760642,7039.599021275838,12079066,132
1767760642,7039.695183436076,12079054,132
1767760642,7040.32023747762,12079043,132
1767760642,7040.849129358928,12079035,132
1767760642,7039.839426676433,12079028,294
1767760642,7035.46404838562,12079019,294
1767760642,7026.713291803996,12079004,294
1767760642,7013.779481252034,12079001,294
1767760642,6997.479995091756,12078997,294
1767760642,6979.834238688151,12078994,294
1767760642,6962.765455245972,12078987,294
1767760642,6948.341131210327,12078982,294
1767760642,6937.570969263713,12078978,294
1767760642,6930.022239685059,12078978,294
1767760642,6923.964023590088,12078976,294
1767760642,6917.665402094523,12078974,294
1767760642,6909.347375233968,12078972,294
1767760642,6898.288726806641,12078974,294
1767760642,6884.681781133016,12078977,294
1767760642,6869.584321975708,12078976,294
1767760642,6854.871511459351,12078983,294
1767760642,6842.658917109172,12078981,294
1767760642,6834.485133488973,12078983,294
1767760642,6834.052403767903,12078999,294
1767760642,6838.139295578003,12079002,294
1767760642,6842.033863067627,12079006,294
1767760642,6844.8225657145185,12079011,294
1767760642,6846.168835957845,12079018,294
1767760642,6846.216917037964,12079028,294
1767760642,6846.168835957845,12079029,294
1767760642,6847.370862960815,12079035,294
1767760642,6850.784619649251,12079041,294
1767760642,6856.842835744222,12079055,294
1767760642,6865.401268005371,12079053,294
1767760642,6875.786781311035,12079056,294
1767760642,6886.893510818481,12079065,294
1767760642,6897.182861963908,12079072,294
1767760642,6905.020078023274,12079080,294
1767760642,6909.6839427948,12079083,294
1767760642,6911.559104919434,12079091,294
1767760642,6911.462942759196,12079094,294
1767760642,6910.597483317058,12079094,294
1767760642,6909.972429275513,12079106,294
1767760642,6909.924348195394,12079106,294
1767760642,6913.578510284424,12079117,294
1767760642,6913.963158925374,12079129,294
1767760642,6913.001537322998,12079127,294
1767760642,6911.174456278483,12079132,294
1767760642,6909.347375233968,12079132,294
1767760642,6908.04918607076,12079137,294
1767760642,6907.904942830403,12079138,294
1767760642,6909.106969833374,12079138,294
1767760642,6912.136077880859,12079140,294
1767760642,6916.799942652385,12079140,294
1767760642,6922.473510106404,12079143,294
1767760642,6927.858591079712,12079146,294
1767760642,6931.368509928386,12079146,294
1767760642,6931.9454828898115,12079145,294
1767760642,6928.483645121257,12079145,294
1767760642,6921.03107770284,12079146,294
1767760642,6910.260915756226,12079145,294
1767760642,6898.144483566284,12079146,294
1767760642,6887.422402699788,12079142,294
1767760642,6880.354483922322,12079143,294
1767760642,6878.046592076619,12079137,294
1767760642,6879.7775109608965,12079140,294
1767760642,6883.479754130046,12079136,294
1767760642,6887.37432161967,12079137,294
1767760642,6889.8264567057295,12079135,294
1767760642,6890.836159388225,12079131,294
1767760642,6891.557375590007,12079132,294
1767760642,6894.153753916423,12079130,294
1767760642,6900.885105133057,12079127,294
1767760642,6926.993131637573,12079125,294
1767760642,6940.984725952148,12079124,294
1767760642,6950.456698735555,12079122,294
1767760642,6953.0049959818525,12079116,294
1767760642,6948.533455530803,12079117,294
1767760642,6939.590374628703,12079110,294
1767760642,6929.877996444702,12079111,294
1767760642,6923.002401987712,12079111,294
1767760642,6920.742591222127,12079109,294
1767760642,6922.136942545573,12079107,294
1767760642,6923.627456029256,12079102,294
1767760642,6921.223402023315,12079102,294
1767760642,6912.52072652181,12079100,294
1767760642,6898.72145652771,12079096,294
1767760642,6883.816321690877,12079094,294
1767760642,6873.094240824382,12079094,294
1767760642,6870.017051696777,12079089,294
1767760642,6875.209808349609,12079086,294
1767760642,6885.402997334798,12079088,294
1767760642,6894.778807957967,12079085,294
1767760642,6863.4299437205,12079075,294
1767760642,6854.150295257568,12079073,294
1767760642,6854.4868628184,12079072,294
1767760642,6863.670349121094,12079074,294
1767760642,6876.123348871867,12079066,294
1767760642,6884.681781133016,12079067,294
1767760642,6884.537537892659,12079068,294
1767760642,6876.748402913411,12079062,294
1767760642,6868.911186854045,12079059,294
1767760642,6872.901916503906,12079057,294
1767760642,6899.731159210205,12079055,294
1767760642,6953.053077061971,12079055,294
1767760642,7025.270859400432,12079049,294
1767760642,7098.642587661743,12079049,294
1767760642,7150.041262308757,12079044,294
1767760642,7160.04212697347,12079041,294
1767760642,7119.605938593547,12079042,133
1767760642,7034.213940302531,12079035,133
1767760642,6922.810077667236,12079032,133
1767760642,6811.790863672893,12079025,133
1767760642,6726.158459981282,12079025,133
1767760642,6681.923866271973,12079018,133
1767760642,6681.346893310547,12079012,133
1767760642,6714.09010887146,12079008,133
1767760643,6844.678322474162,12078993,133
1767760643,6862.6125653584795,12078985,133
1767760643,6867.564916610718,12078977,133
1767760643,6866.5071328481035,12078969,133
1767760643,6866.170565287272,12078958,133
1767760643,6869.728565216064,12078950,133
1767760643,6876.363754272461,12078944,133
1767760643,6882.90278116862,12078935,133
1767760643,6886.412700017293,12078922,133
1767760643,6886.268456776937,12078910,133
1767760643,6884.152889251709,12078900,133
1767760643,6882.7104568481445,12078886,133
1767760643,6883.960564931233,12078880,133
1767760643,6888.047456741333,12078865,133
1767760643,6893.432537714641,12078856,133
1767760643,6897.375186284383,12078842,133
1767760643,6897.711753845215,12078824,133
1767760643,6893.7210241953535,12078817,133
1767760643,6886.508862177531,12078796,133
1767760643,6878.86397043864,12078784,133
1767760643,6873.719294865926,12078771,133
1767760643,6872.3249435424805,12078754,133
1767760643,6874.536673227946,12078738,133
1767760643,6878.86397043864,12078721,133
1767760643,6883.864402770996,12078710,133
1767760643,6888.912916183472,12078693,133
1767760643,6894.297997156779,12078677,133
1767760643,6901.029348373413,12078660,133
1767760643,6910.164753595988,12078642,133
1767760643,6922.569672266643,12078626,133
1767760643,6938.0517800649,12078609,133
1767760643,6955.12056350708,12078599,133
1767760643,6971.75661722819,12078581,133
1767760643,6986.421346664429,12078566,133
1767760643,6998.778184254964,12078553,133
1767760643,7009.452184041341,12078541,133
1767760643,7019.549210866292,12078524,133
1767760643,7029.742399851481,12078510,133
1767760643,7040.272156397502,12078496,133
1767760643,7062.822182973226,12078458,133
1767760643,7060.562372207642,12078445,288
1767760643,7050.705750783284,12078434,288
1767760643,7033.685048421224,12078430,288
1767760643,7011.471589406331,12078419,288
1767760643,6986.805995305379,12078408,288
1767760643,6962.621212005615,12078400,288
1767760643,6941.561698913574,12078395,288
1767760643,6925.117969512939,12078388,288
1767760643,6913.33810488383,12078380,288
1767760643,6904.635429382324,12078375,288
1767760643,6896.990537643433,12078374,288
1767760643,6888.384024302165,12078371,288
1767760643,6878.43124071757,12078365,288
1767760643,6868.189970652263,12078364,288
1767760643,6859.679619471232,12078360,288
1767760643,6854.534943898519,12078364,288
1767760643,6854.006052017212,12078362,288
1767760643,6857.275565465291,12078359,288
1767760643,6862.468322118123,12078363,288
1767760643,6866.362889607747,12078360,288
1767760643,6865.83399772644,12078362,288
1767760643,6859.583457310994,12078369,288
1767760643,6848.717133204143,12078368,288
1767760643,6836.600701014201,12078371,288
1767760643,6827.176809310913,12078375,288
1767760643,6823.859214782715,12078379,288
1767760643,6828.138430913289,12078381,288
1767760643,6838.908592859904,12078384,288
1767760643,6853.332916895549,12078390,288
1767760643,6867.228349049886,12078395,288
1767760643,6877.084970474243,12078397,288
1767760643,6881.027619043986,12078411,288
1767760643,6882.325808207194,12078418,288
1767760643,6887.75897026062,12078421,288
1767760643,6897.134780883789,12078426,288
1767760643,6908.337672551473,12078430,288
1767760643,6918.290456136067,12078434,288
1767760643,6923.867861429851,12078443,288
1767760643,6923.338969548543,12078444,288
1767760643,6917.80964533488,12078448,288
1767760643,6910.357077916463,12078454,288
1767760643,6904.971996943156,12078459,288
1767760643,6904.587348302205,12078463,288
1767760643,6910.164753595988,12078468,288
1767760643,6920.069456100464,12078473,288
1767760643,6930.935780207316,12078477,288
1767760643,6939.157644907634,12078481,288
1767760643,6941.465536753337,12078484,288
1767760643,6936.993996302287,12078487,288
1767760643,6926.993131637573,12078490,288
1767760643,6914.395888646443,12078491,288
1767760643,6902.856429417928,12078492,288
1767760643,6894.923051198323,12078494,288
1767760643,6891.365051269531,12078495,288
1767760643,6891.316970189412,12078501,288
1767760643,6896.605889002482,12078506,288
1767760643,6896.173159281413,12078505,288
1767760643,6894.442240397136,12078510,288
1767760643,6892.470916112264,12078513,288
1767760643,6891.461213429769,12078511,288
1767760643,6891.7496999104815,12078510,288
1767760643,6893.095970153809,12078515,288
1767760643,6895.0192133585615,12078516,288
1767760643,6896.798213322957,12078518,288
1767760643,6898.529132207234,12078515,288
1767760643,6899.586915969849,12078517,288
1767760643,6900.019645690918,12078524,288
1767760643,6899.827321370442,12078523,288
1767760643,6899.8754024505615,12078526,288
1767760643,6901.317834854126,12078524,288
1767760643,6905.164321263631,12078526,288
1767760643,6911.462942759196,12078532,288
1767760643,6919.684807459514,12078531,288
1767760643,6928.724050521851,12078531,288
1767760643,6931.656996409099,12078546,288
1767760643,6926.945050557454,12078553,288
1767760643,6925.406455993652,12078551,288
1767760643,6927.089293797811,12078553,288
1767760643,6929.733753204346,12078560,288
1767760643,6929.54142888387,12078560,288
1767760643,6908.722321192424,12078573,288
1767760643,6888.5282675425215,12078574,288
1767760643,6867.46875445048,12078578,288
1767760643,6852.323214213054,12078581,288
1767760643,6848.284403483073,12078587,288
1767760643,6856.313943862915,12078590,288
1767760643,6872.3730246226,12078592,288
1767760643,6889.201402664185,12078599,288
1767760643,6899.5388348897295,12078603,288
1767760643,6899.346510569255,12078610,288
1767760643,6889.730294545491,12078611,288
1767760643,6876.315673192342,12078619,288
1767760643,6866.170565287272,12078621,288
1767760643,6864.63197072347,12078628,288
1767760643,6871.892213821411,12078634,288
1767760643,6882.470051447551,12078639,288
1767760643,6888.384024302165,12078640,288
1767760643,6883.864402770996,12078645,288
1767760643,6870.0651327768965,12078649,288
1767760643,6856.073538462321,12078655,288
1767760643,6855.785051981608,12078654,288
1767760643,6881.989240646362,12078661,288
1767760643,6939.542293548584,12078668,288
1767760643,7020.895481109619,12078668,288
1767760643,7106.431722640991,12078673,288
1767760643,7170.18723487854,12078677,288
1767760643,7188.746531804402,12078679,288
1767760643,7150.522073109944,12078678,129
1767760643,7060.610453287761,12078680,129
1767760643,6940.023104349772,12078682,129
1767760643,6818.426052729289,12078689,129
1767760643,6723.6582438151045,12078684,129
1767760643,6673.4615961710615,12078684,129
1767760643,6670.576731363933,12078687,129
1767760643,6703.51227124532,12078686,129
1767760643,6753.372351328532,12078683,129
1767760643,6846.7458089192705,12078676,129
1767760643,6849.438349405925,12078668,129
1767760643,6849.630673726399,12078669,129
1767760643,6854.727268218994,12078662,129
1767760643,6867.180267969768,12078659,129
1767760643,6909.29929415385,12078640,129
1767760643,6909.395456314087,12078633,129
1767760643,6901.654402414958,12078620,129
1767760643,6890.836159388225,12078615,129
1767760643,6882.133483886719,12078604,129
1767760643,6878.623565038045,12078595,129
1767760643,6880.498727162679,12078586,129
1767760643,6885.499159495036,12078574,129
1767760643,6890.403429667155,12078564,129
1767760643,6892.855564753215,12078556,129
1767760643,6891.316970189412,12078543,129
1767760643,6886.316537857056,12078535,129
1767760643,6879.296700159709,12078518,129
1767760643,6872.421105702718,12078509,129
1767760643,6867.516835530599,12078496,129
1767760643,6866.026322046916,12078482,129
1767760643,6868.334213892619,12078470,129
1767760643,6874.440511067708,12078458,129
1767760643,6884.056727091472,12078445,129
1767760643,6896.26932144165,12078430,129
1767760643,6909.5877806345625,12078416,129
1767760643,6922.136942545573,12078408,129
1767760643,6932.955185572307,12078397,129
1767760643,6942.234834035237,12078384,129
1767760643,6951.851050059001,12078373,129
1767760643,6963.871320088704,12078364,129
1767760643,6979.834238688151,12078348,129
1767760643,7000.076373418172,12078339,129
1767760643,7022.674481074016,12078325,129
1767760643,7044.503291447957,12078317,129
1767760643,7061.331669489543,12078309,129
1767760643,7070.034344991048,12078298,129
1767760643,7069.505453109741,12078289,300
1767760643,7061.668237050374,12078282,300
1767760643,7049.647967020671,12078276,300
1767760643,7037.050724029541,12078265,300
1767760643,7025.607426961263,12078259,300
1767760643,7015.462319056193,12078256,300
1767760643,7005.172967910767,12078250,300
1767760643,6992.816130320231,12078242,300
1767760643,6977.04553604126,12078239,300
1767760643,6957.716941833496,12078238,300
1767760643,6936.4651044209795,12078230,300
1767760643,6915.79023996989,12078230,300
1767760643,6897.952159245809,12078227,300
1767760643,6883.816321690877,12078224,300
1767760643,6872.998078664144,12078223,300
1767760643,6864.103078842163,12078228,300
1767760643,6856.362024943034,12078231,300
1767760643,6849.822998046875,12078227,300
1767760643,6847.226619720459,12078237,300
1767760643,6850.496133168538,12078238,300
1767760643,6851.842403411865,12078241,300
1767760643,6849.534511566162,12078246,300
1767760643,6843.5243765513105,12078251,300
1767760643,6836.408376693726,12078257,300
1767760643,6831.552187601726,12078261,300
1767760643,6832.273403803508,12078267,300
1767760643,6840.30294418335,12078273,300
1767760643,6854.631106058757,12078278,300
1767760643,6872.421105702718,12078284,300
1767760643,6889.4898891448975,12078288,300
1767760643,6901.606321334839,12078294,300
1767760643,6906.366348266602,12078302,300
1767760643,6903.866132100423,12078305,300
1767760643,6896.509726842244,12078314,300
1767760643,6888.57634862264,12078323,300
1767760643,6883.864402770996,12078327,300
1767760643,6884.297132492065,12078335,300
1767760643,6890.018781026204,12078338,300
1767760643,6899.009943008423,12078347,300
1767760643,6908.433834711711,12078352,300
1767760643,6915.4055913289385,12078359,300
1767760643,6917.953888575236,12078368,300
1767760643,6916.126807530721,12078374,300
1767760644,6911.799510320027,12078385,300
1767760644,6907.66453742981,12078387,300
1767760644,6905.981699625651,12078393,300
1767760644,6907.808780670166,12078398,300
1767760644,6912.280321121216,12078408,300
1767760644,6917.857726414998,12078409,300
1767760644,6922.28118578593,12078415,300
1767760644,6923.867861429851,12078420,300
1767760644,6921.800374984741,12078429,300
1767760644,6916.511456171672,12078433,300
1767760644,6909.732023874919,12078443,300
1767760644,6903.289159138997,12078446,300
1767760644,6898.481051127116,12078451,300
1767760644,6895.451943079631,12078457,300
1767760644,6893.769105275472,12078462,300
1767760644,6893.095970153809,12078467,300
1767760644,6893.288294474284,12078471,300
1767760644,6895.115375518799,12078479,300
1767760644,6898.817618687947,12078484,300
1767760644,6904.635429382324,12078488,300
1767760644,6911.799510320027,12078496,300
1767760644,6918.482780456543,12078497,300
1767760644,6922.28118578593,12078505,300
1767760644,6920.790672302246,12078507,300
1767760644,6913.290023803711,12078514,300
1767760644,6901.702483495076,12078518,300
1767760644,6889.4898891448975,12078523,300
1767760644,6880.691051483154,12078526,300
1767760644,6877.950429916382,12078533,300
1767760644,6881.364186604817,12078535,300
1767760644,6888.624429702759,12078541,300
1767760644,6895.836591720581,12078548,300
1767760644,6899.202267328898,12078552,300
1767760644,6896.990537643433,12078553,300
1767760644,6890.547672907512,12078560,300
1767760644,6884.200970331828,12078565,300
1767760644,6883.143186569214,12078572,300
1767760644,6890.643835067749,12078575,300
1767760644,6906.462510426839,12078578,300
1767760644,6926.368077596028,12078582,300
1767760644,6944.735050201416,12078589,300
1767760644,6955.793698628743,12078593,300
1767760644,6956.8995634714765,12078598,300
1767760644,6949.1104284922285,12078605,300
1767760644,6936.945915222168,12078606,300
1767760644,6926.223834355672,12078611,300
1767760644,6921.175320943196,12078621,300
1767760644,6922.088861465454,12078623,300
1767760644,6925.791104634603,12078624,300
1767760644,6926.848888397217,12078628,300
1767760644,6921.367645263672,12078638,300
1767760644,6863.381862640381,12078654,300
1767760644,6861.025889714559,12078657,300
1767760644,6865.737835566203,12078666,300
1767760644,6873.334646224976,12078666,300
1767760644,6878.671646118164,12078671,300
1767760644,6878.960132598877,12078672,300
1767760644,6875.402132670085,12078678,300
1767760644,6872.036457061768,12078684,300
1767760644,6873.094240824382,12078689,300
1767760644,6879.729429880778,12078689,300
1767760644,6889.153321584065,12078693,300
1767760644,6895.0192133585615,12078694,300
1767760644,6891.701618830363,12078701,300
1767760644,6877.661943435669,12078700,300
1767760644,6858.429511388143,12078706,300
1767760644,6845.880349477132,12078702,300
1767760644,6854.390700658162,12078713,300
1767760644,6894.009510676066,12078707,300
1767760644,6963.967482248942,12078713,300
1767760644,7050.849994023641,12078713,300
1767760644,7131.1453978220625,12078713,300
1767760644,7179.274559020996,12078716,300
1767760644,7176.197369893392,12078716,123
1767760644,7117.249965667725,12078716,123
1767760644,6776.787837346395,12078708,123
1767760644,6697.550217310588,12078710,123
1767760644,6664.999326070149,12078706,123
1767760644,6676.586866378784,12078705,123
1767760644,6718.080838521321,12078698,123
1767760644,6849.486430486043,12078685,123
1767760644,6865.5455112457275,12078682,123
1767760644,6870.834430058797,12078674,123
1767760644,6872.469186782837,12078668,123
1767760644,6875.690619150798,12078659,123
1767760644,6888.14361890157,12078630,123
1767760644,6881.0757001241045,12078619,123
1767760644,6872.613430023193,12078608,123
1767760644,6866.362889607747,12078597,123
1767760644,6865.016619364421,12078590,123
1767760644,6868.863105773926,12078575,123
1767760644,6876.171429951985,12078565,123
1767760644,6883.6720784505205,12078554,123
1767760644,6888.191699981689,12078543,123
1767760644,6877.325375874837,12078503,123
1767760644,6871.844132741292,12078495,123
1767760644,6869.584321975708,12078479,123
1767760644,6871.892213821411,12078466,123
1767760644,6879.104375839233,12078451,123
1767760644,6890.499591827393,12078439,123
1767760644,6904.346942901611,12078426,123
1767760644,6918.19429397583,12078413,123
1767760644,6929.877996444702,12078398,123
1767760644,6956.5629959106445,12078339,123
1767760644,6968.342860539754,12078329,123
1767760644,6985.411643981934,12078316,123
1767760644,7041.666507720947,12078285,123
1767760644,7050.46534538269,12078274,123
1767760644,7051.811615626018,12078267,123
1767760644,7047.340075174968,12078257,294
1767760644,7039.887507756551,12078250,294
1767760644,7032.002210617065,12078240,294
1767760644,7025.607426961263,12078231,294
1767760644,7020.751237869263,12078223,294
1767760644,7015.943129857381,12078218,294
1767760644,7009.0194543202715,12078211,294
1767760644,6998.345454533895,12078206,294
1767760644,6983.776887257894,12078202,294
1767760644,6966.515779495239,12078197,294
1767760644,6948.148806889852,12078194,294
1767760644,6930.070320765178,12078190,294
1767760644,6912.8092130025225,12078185,294
1767760644,6896.653970082601,12078180,294
1767760644,6881.460348765056,12078184,294
1767760644,6867.661078770955,12078183,294
1767760644,6855.833133061727,12078180,294
1767760644,6846.841971079509,12078176,294
1767760644,6841.8896198272705,12078176,294
1767760644,6845.591862996419,12078177,294
1767760644,6842.70699818929,12078180,294
1767760644,6839.822133382161,12078182,294
1767760644,6848.524808883667,12078185,294
1767760644,6857.7563762664795,12078188,294
1767760644,6867.132186889648,12078192,294
1767760644,6873.9597002665205,12078196,294
1767760644,6877.084970474243,12078197,294
1767760644,6876.940727233887,12078198,294
1767760644,6875.786781311035,12078205,294
1767760644,6876.315673192342,12078205,294
1767760644,6880.402565002441,12078206,294
1767760644,6888.14361890157,12078209,294
1767760644,6898.192564646403,12078210,294
1767760644,6908.193429311116,12078217,294
1767760644,6915.261348088582,12078217,294
1767760644,6917.328834533691,12078218,294
1767760644,6914.1074021657305,12078222,294
1767760644,6907.376050949097,12078222,294
1767760644,6899.923483530681,12078222,294
1767760644,6894.6826457977295,12078231,294
1767760644,6893.288294474284,12078231,294
1767760644,6895.9808349609375,12078234,294
1767760644,6917.280753453572,12078243,294
1767760644,6916.944185892741,12078248,294
1767760644,6913.915077845256,12078252,294
1767760644,6909.539699554443,12078250,294
1767760644,6905.452807744344,12078251,294
1767760644,6902.4717807769775,12078253,294
1767760644,6901.221672693889,12078257,294
1767760644,6901.798645655314,12078261,294
1767760644,6903.962294260661,12078263,294
1767760644,6906.943321228027,12078266,294
1767760644,6909.5877806345625,12078268,294
1767760644,6910.8859697977705,12078268,294
1767760644,6896.894375483195,12078282,294
1767760644,6891.076564788818,12078285,294
1767760644,6886.797348658244,12078288,294
1767760644,6885.595321655273,12078288,294
1767760644,6887.855132420857,12078291,294
1767760644,6892.663240432739,12078295,294
1767760644,6898.33680788676,12078299,294
1767760644,6903.241078058879,12078301,294
1767760644,6905.933618545532,12078306,294
1767760644,6906.270186106364,12078307,294
1767760644,6905.308564503987,12078312,294
1767760644,6904.683510462443,12078318,294
1767760644,6906.510591506958,12078323,294
1767760644,6911.8475914001465,12078326,294
1767760644,6920.357942581177,12078326,294
1767760644,6929.781834284465,12078335,294
1767760644,6937.570969263713,12078336,294
1767760644,6941.75402323405,12078343,294
1767760644,6942.042509714763,12078348,294
1767760644,6939.253807067871,12078350,294
