timestamp,Channel 1,Channel 2,Channel 3
1767761227,5912.2900168101,12561521,115
1767761227,5903.250773747762,12561612,115
1767761227,5893.394152323405,12561702,115
1767761227,5883.008639017741,12561795,115
1767761227,5873.440504074097,12561881,115
1767761227,5868.1996663411455,12561972,115
1767761227,5869.113206863403,12562063,115
1767761227,5874.402125676473,12562154,115
1767761227,5880.796909332275,12562243,115
1767761227,5885.653098424275,12562332,115
1767761227,5889.691909154256,12562423,115
1767761227,5895.557800928752,12562783,115
1767761227,5895.4135576883955,12562869,115
1767761227,5899.500449498494,12562962,115
1767761227,5907.674233118693,12563046,115
1767761227,5918.203989664714,12563140,115
1767761227,5928.877989451091,12563218,115
1767761227,5939.840475718181,12563304,115
1767761227,5949.793259302775,12563393,115
1767761227,5955.851475397746,12563477,115
1767761227,5955.755313237508,12563558,115
1767761227,5950.033664703369,12563643,115
1767761227,5944.071610768636,12563725,115
1767761227,5943.158070246379,12563798,115
1767761227,5949.312448501587,12563884,115
1767761227,5961.380799611409,12563965,115
1767761227,5975.94936688741,12564044,115
1767761227,5990.56601524353,12564120,115
1767761227,6001.576582590739,12564199,115
1767761227,6004.701852798462,12564276,115
1767761227,5998.114744822185,12564353,115
1767761227,5984.45971806844,12564425,115
1767761227,5971.766312917073,12564503,115
1767761227,5967.150529225667,12564575,115
1767761227,5972.920258839925,12564648,115
1767761227,5986.575285593669,12564723,115
1767761227,6002.970933914185,12564797,115
1767761227,6018.453041712443,12564869,115
1767761227,6029.463609059651,12564942,115
1767761227,6032.78120358785,12565015,115
1767761227,6027.059555053711,12565087,115
1767761227,6013.356447219849,12565156,115
1767761227,5995.710690816243,12565227,115
1767761227,5975.94936688741,12565296,115
1767761227,5952.197313308716,12565365,115
1767761227,5922.194719314575,12565436,115
1767761227,5831.706126530965,12565644,115
1767761227,5826.994180679321,12565708,115
1767761227,5839.399099349976,12565781,115
1767761227,5862.3818556467695,12565842,115
1767761227,5885.797341664632,12565910,115
1767761227,5897.6733684539795,12565978,115
1767761227,5889.259179433187,12566044,115
1767761227,5862.526098887126,12566109,115
1767761227,5833.196640014648,12566172,115
1767761227,5828.196207682292,12566235,115
1767761227,5871.805747350057,12566299,115
1767761227,5972.439448038737,12566365,115
1767761227,6116.77885055542,12566421,115
1767761227,6271.503766377767,12566491,115
1767761227,6395.2163855234785,12566547,115
1767761227,6449.9326546986895,12566607,115
1767761227,6414.785385131836,12566669,115
1767761227,6295.784711837769,12566729,115
1767761227,6125.866174697876,12566782,115
1767761227,5955.034097035726,12566834,115
1767761227,5829.253991444905,12566889,115
1767761227,5772.758722305298,12566948,115
1767761227,5782.134532928467,12566995,115
1767761227,5831.417640050252,12567045,115
1767761227,5887.335936228435,12567089,115
1767761227,5921.088854471843,12567139,115
1767761227,5918.7328815460205,12567187,115
1767761227,5885.460774103801,12567230,115
1767761227,5840.937693913777,12567276,115
1767761227,5809.5888296763105,12567314,115
1767761227,5805.55001894633,12567361,115
1767761227,5825.647910435994,12567401,115
1767761227,5853.871504465739,12567440,115
1767761227,5872.382720311482,12567474,115
1767761227,5873.825152715047,12567513,115
1767761227,5864.3050988515215,12567547,115
1767761227,5859.016180038452,12567585,115
1767761227,5874.834855397542,12567614,115
1767761227,5921.56966527303,12567644,115
1767761227,5995.710690816243,12567679,115
1767761227,6077.929337819417,12567710,115
1767761227,6138.174931208293,12567738,115
1767761227,6150.05095799764,12567769,115
1767761227,6103.7007967631025,12567797,115
1767761227,6013.067960739136,12567822,115
1767761227,5908.203125,12567848,115
1767761227,5822.714964548747,12567880,115
1767761227,5781.509478886922,12567909,115
1767761227,5793.193181355794,12567935,115
1767761227,5849.928855895996,12567964,115
1767761227,5930.031935373942,12567993,115
1767761227,6005.903879801433,12568027,115
1767761227,6056.485176086426,12568057,115
1767761227,6074.323256810506,12568090,115
1767761227,6043.455203374227,12568191,115
1767761227,6044.464906056722,12568234,115
1767761227,6055.619716644287,12568264,115
1767761227,6073.698202768962,12568309,115
1767761227,6093.940337498982,12568350,115
1767761227,6111.297607421875,12568398,115
1767761227,6123.65444501241,12568436,115
1767761227,6131.587823232015,12568484,115
1767761227,6138.415336608887,12568534,115
1767761227,6144.810120264689,12568584,115
1767761227,6146.685282389323,12568638,115
1767761227,6138.751904169719,12568697,115
1767761227,6118.702093760173,12568751,115
1767761227,6091.247797012329,12568815,115
1767761227,6029.8482577006025,12569005,115
1767761227,6020.472447077434,12569075,115
1767761227,6010.327339172363,12569141,115
1767761227,5992.825826009114,12569220,115
1767761227,5962.342421213786,12569293,115
1767761227,5918.925205866496,12569369,115
1767761227,5870.411396026611,12569450,115
1767761227,5831.561883290608,12569529,115
1767761227,5942.533016204834,12569969,115
1767761227,5964.794556299846,12570059,115
1767761227,5964.506069819133,12570154,115
1767761227,5853.342612584432,12570547,115
1767761227,5849.399964014689,12570647,115
1767761227,5859.1123421986895,12570750,115
1767761227,5875.459909439087,12570852,115
1767761227,5893.057584762573,12570962,115
1767761227,5908.251206080119,12571062,115
1767761227,5918.107827504476,12571176,115
1767761227,5922.194719314575,12571280,115
1767761227,5922.242800394694,12571391,115
1767761227,5923.444827397664,12571504,115
1767761227,5929.4068813323975,12571615,115
1767761227,5939.215421676636,12571728,115
1767761227,5949.120124181111,12571841,115
1767761227,5955.082178115845,12571955,115
1767761227,5956.236124038696,12572066,115
1767761227,5952.774286270142,12572177,115
1767761227,5944.648583730062,12572293,115
1767761227,5932.676394780477,12572407,115
1767761227,5919.886827468872,12572526,115
1767761227,5912.963151931763,12572643,115
1767761227,5917.53085454305,12572760,115
1767761227,5934.214989344279,12572872,115
1767761227,5959.313313166301,12572988,115
1767761227,5986.52720451355,12573101,115
1767761227,6011.144717534383,12573224,115
1767761227,6029.223203659058,12573338,115
1767761227,6036.771933237712,12573449,115
1767761227,6032.973527908325,12573565,115
1767761227,6020.905176798503,12573678,115
1767761227,6007.971366246541,12573794,115
1767761227,6000.951528549194,12573905,115
1767761227,6001.576582590739,12574011,115
1767761227,6007.682879765828,12574122,115
1767761227,6015.135447184245,12574234,115
1767761227,6022.203365961711,12574342,115
1767761227,6027.732690175374,12574446,115
1767761227,6029.078960418701,12574551,115
1767761227,6023.4534740448,12574652,115
1767761227,6008.596420288086,12574756,115
1767761227,5985.325177510579,12574860,115
1767761227,5955.514907836914,12574953,115
1767761227,5920.752286911011,12575050,115
1767761228,5884.979963302612,12575142,115
1767761228,5855.506261189778,12575234,115
1767761228,5842.2839641571045,12575323,115
1767761228,5851.467450459798,12575410,115
1767761228,5878.729422887166,12575495,115
1767761228,5910.703341166179,12575575,115
1767761228,5929.551124572754,12575657,115
1767761228,5922.579367955525,12575730,115
1767761228,5886.807044347127,12575806,115
1767761228,5831.465721130371,12575877,115
1767761228,5758.190155029297,12576009,115
1767761228,5796.799262364705,12576073,115
1767761228,5905.558665593465,12576136,115
1767761228,6069.515148798625,12576194,115
1767761228,6251.790523529053,12576248,115
1767761228,6405.217250188191,12576302,115
1767761228,6490.032275517781,12576351,115
1767761228,6485.993464787801,12576400,112
1767761228,6396.5145746866865,12576448,112
1767761228,6249.04990196228,12576491,112
1767761228,6085.285743077596,12576531,112
1767761228,5948.879718780518,12576570,112
1767761228,5868.343909581502,12576605,112
1767761228,5847.33247756958,12576643,112
1767761228,5868.151585261027,12576680,112
1767761228,5902.241071065267,12576708,112
1767761228,5925.031503041585,12576738,112
1767761228,5923.300584157308,12576769,112
1767761228,5896.3751792907715,12576797,112
1767761228,5855.121612548828,12576821,112
1767761228,5816.079775492351,12576848,112
1767761228,5795.164505640666,12576870,112
1767761228,5799.539883931478,12576896,112
1767761228,5823.724667231242,12576918,112
1767761228,5855.169693628947,12576943,112
1767761228,5880.8449904123945,12576966,112
1767761228,5895.4135576883955,12576992,112
1767761228,5900.07742245992,12577016,112
1767761228,5898.779233296712,12577035,112
1767761228,5895.894368489583,12577056,112
1767761228,5894.355773925781,12577080,112
1767761228,5896.279017130534,12577106,112
1767761228,5901.183287302653,12577127,112
1767761228,5905.270179112752,12577159,112
1767761228,5905.943314234416,12577179,112
1767761228,5904.308557510376,12577202,112
1767761228,5944.456259409587,12577290,112
1767761228,5976.093610127767,12577320,112
1767761228,6006.625096003215,12577345,112
1767761228,6030.184825261434,12577378,112
1767761228,6043.070554733276,12577416,112
1767761228,6027.49228477478,12577512,112
1767761228,6025.520960489909,12577550,112
1767761228,6036.964257558187,12577587,112
1767761228,6059.9470138549805,12577625,112
1767761228,6086.872418721517,12577666,112
1767761228,6108.2204182942705,12577701,112
1767761228,6119.134823481242,12577738,112
1767761228,6118.846337000529,12577782,112
1767761228,6109.278202056885,12577824,112
1767761228,6094.805796941121,12577869,112
1767761228,6081.198851267497,12577905,112
1767761228,6075.140635172526,12577951,112
1767761228,6079.948743184407,12577994,112
1767761228,6092.209418614705,12578039,112
1767761228,6104.758580525716,12578083,112
1767761228,6110.143661499023,12578126,112
1767761228,6105.335553487142,12578168,112
1767761228,6090.38233757019,12578216,112
1767761228,6065.332094828288,12578257,112
1767761228,6031.338771184285,12578307,112
1767761228,5917.4346923828125,12578443,112
1767761228,5893.297990163167,12578482,112
1767761228,5880.123774210612,12578527,112
1767761228,5877.76780128479,12578569,112
1767761228,5886.6628011067705,12578611,112
1767761228,5905.222098032634,12578658,112
1767761228,5927.147070566813,12578700,112
1767761228,5944.696664810181,12578747,112
1767761228,5951.7645835876465,12578787,112
1767761228,5912.193854649861,12578960,112
1767761228,5904.837449391683,12578998,112
1767761228,5905.414422353108,12579044,112
1767761228,5914.886395136516,12579081,112
1767761228,5929.214557011922,12579126,112
1767761228,5942.67725944519,12579165,112
1767761228,5951.187610626221,12579209,112
1767761228,5955.611069997151,12579246,112
1767761228,5959.2171510060625,12579291,112
1767761228,5963.207880655925,12579333,112
1767761228,5967.2947724660235,12579378,112
1767761228,5969.794988632202,12579414,112
1767761228,5970.70852915446,12579461,112
1767761228,5959.8902861277265,12579583,112
1767761228,5949.697097142537,12579623,112
1767761228,5940.850178400676,12579669,112
1767761228,5937.580664952596,12579711,112
1767761228,5939.888556798299,12579757,112
1767761228,5944.937070210774,12579799,112
1767761228,5949.1682052612305,12579844,112
1767761228,5952.1011511484785,12579886,112
1767761228,5954.841772715251,12579931,112
1767761228,5957.582394282023,12579980,112
1767761228,5960.5153401692705,12580024,112
1767761228,5964.073340098063,12580070,112
1767761228,5970.804691314697,12580111,112
1767761228,5982.247988382976,12580159,112
1767761228,5996.239582697551,12580206,112
1767761228,6009.173393249512,12580252,112
1767761228,6017.827987670898,12580301,112
1767761228,6022.876501083374,12580343,112
1767761228,6026.482582092285,12580394,112
1767761228,6028.598149617513,12580446,112
1767761228,6028.453906377156,12580493,112
1767761228,6025.328636169434,12580540,112
1767761228,6021.81871732076,12580591,112
1767761228,6020.857095718384,12580639,112
1767761228,6025.136311848958,12580790,112
1767761228,6021.38598759969,12580838,112
1767761228,6012.49098777771,12580888,112
1767761228,5995.8549340566,12580942,112
1767761228,5970.948934555054,12580986,112
1767761228,5940.898259480794,12581040,112
1767761228,5914.261341094971,12581089,112
1767761228,5899.452368418376,12581141,112
1767761228,5898.154179255168,12581196,112
1767761228,5904.260476430257,12581245,112
1767761228,5906.231800715129,12581299,112
1767761228,5893.346071243286,12581344,112
1767761228,5860.362450281779,12581399,112
1767761228,5723.475615183513,12581550,112
1767761228,5738.813479741414,12581598,112
1767761228,5820.8878835042315,12581646,112
1767761228,5966.381231943767,12581698,112
1767761228,6148.897012074788,12581749,112
1767761228,6326.075792312622,12581800,112
1767761228,6454.115708669026,12581844,112
1767761228,6501.090923945109,12581893,112
1767761228,6455.558141072591,12581944,110
1767761228,6331.893603006999,12581989,110
1767761228,6166.061957677205,12582038,110
1767761228,6005.038420359294,12582076,110
1767761228,5889.163017272949,12582129,110
1767761228,5836.706558863322,12582176,110
1767761228,5841.081937154134,12582218,110
1767761228,5877.335071563721,12582266,110
1767761228,5916.4730707804365,12582304,110
1767761228,5889.643828074138,12582431,110
1767761228,5845.890045166016,12582478,110
1767761228,5815.358559290568,12582513,110
1767761228,5812.906424204509,12582557,110
1767761228,5838.3893966674805,12582597,110
1767761228,5879.354476928711,12582635,110
1767761228,5917.0981248219805,12582666,110
1767761228,5938.109556833903,12582702,110
1767761228,5937.580664952596,12582739,110
1767761228,5918.155908584595,12582776,110
1767761228,5889.499584833781,12582811,110
1767761228,5863.96853129069,12582842,110
1767761228,5853.775342305501,12582877,110
1767761228,5865.026315053304,12582911,110
1767761228,5893.394152323405,12582944,110
1767761228,5928.252935409546,12582976,110
1767761228,5957.486232121785,12583005,110
1767761228,5974.795420964559,12583035,110
1767761228,5979.507366816203,12583063,110
1767761228,5973.7857182820635,12583093,110
1767761228,5962.246259053548,12583125,110
1767761228,5950.851043065389,12583152,110
1767761228,5947.100718816121,12583179,110
1767761228,5956.139961878459,12583208,110
1767761228,5977.1994749705,12583240,110
1767761228,6005.18266359965,12583266,110
1767761228,6033.59858194987,12583289,110
1767761228,6058.600743611653,12583323,110
1767761228,6078.939040501912,12583348,110
1767761228,6092.738310496013,12583377,110
1767761228,6099.421580632527,12583408,110
1767761228,6100.4312833150225,12583431,110
1767761228,6100.7678508758545,12583467,110
1767761228,6105.768283208211,12583492,110
1767761228,6116.490364074707,12583524,110
1767761228,6130.770444869995,12583554,110
1767761228,6152.022282282512,12583714,110
1767761228,6132.309039433797,12583746,110
1767761228,6106.104850769043,12583778,110
1767761228,6025.232474009196,12583883,110
1767761228,5998.835961023967,12583919,110
1767761228,5973.497231801351,12583953,110
1767761228,5951.331853866577,12583996,110
1767761228,5932.0032596588135,12584031,110
1767761228,5914.982557296753,12584071,110
1767761228,5900.365908940633,12584111,110
1767761228,5891.711314519246,12584147,110
1767761228,5892.672936121623,12584191,110
1767761228,5903.106530507405,12584232,110
1767761228,5919.117530186971,12584277,110
1767761228,5934.98428662618,12584317,110
1767761228,5946.667989095052,12584353,110
1767761228,5951.7645835876465,12584399,110
1767761228,5947.485367457072,12584440,110
1767761228,5933.349529902141,12584489,110
1767761228,5894.884665807088,12584706,110
1767761228,5910.895665486653,12584751,110
1767761228,5926.233530044556,12584791,110
1767761228,5931.6666920979815,12584972,110
1767761228,5926.185448964437,12585013,110
1767761228,5928.204854329427,12585054,110
1767761228,5937.388340632121,12585101,110
1767761228,5948.495070139567,12585140,110
1767761228,5954.168637593587,12585184,110
1767761228,5951.187610626221,12585223,110
1767761228,5940.561691919963,12585264,110
1767761228,5925.560394922893,12585316,110
1767761228,5911.664962768555,12585353,110
1767761228,5905.029773712158,12585397,110
1767761228,5912.001530329387,12585435,110
1767761228,5934.743881225586,12585474,110
1767761228,5967.43901570638,12585518,110
1767761228,5999.412933985393,12585557,110
1767761229,6019.991636276245,12585597,110
1767761229,6025.2805550893145,12585638,110
1767761229,6018.693447113037,12585678,110
1767761229,6006.38469060262,12585719,110
1767761229,5996.1434205373125,12585761,110
1767761229,5994.124015172322,12585798,110
1767761229,6004.124879837036,12585843,110
1767761229,6024.367014567058,12585882,110
1767761229,6046.051581700643,12585920,110
1767761229,6058.264176050822,12585968,110
1767761229,6053.45606803894,12586005,110
1767761229,6033.550500869751,12586045,110
1767761229,6007.875204086304,12586086,110
1767761229,5986.1425558726,12586126,110
1767761229,5975.035826365153,12586172,110
1767761229,5975.228150685628,12586210,110
1767761229,5982.776880264282,12586251,110
1767761229,5990.3256098429365,12586295,110
1767761229,5987.921555836995,12586335,110
1767761229,5969.698826471965,12586387,110
1767761229,5937.772989273071,12586426,110
1767761229,5903.443098068237,12586463,110
1767761229,5880.652666091919,12586511,110
1767761229,5875.796476999919,12586556,110
1767761229,5884.787638982137,12586602,110
1767761229,5894.884665807088,12586649,110
1767761229,5892.624855041504,12586690,110
1767761229,5871.132612228394,12586742,110
1767761229,5833.148558934529,12586788,110
1767761229,5794.6836948394775,12586837,110
1767761229,5780.836343765259,12586887,110
1767761229,5818.291505177815,12586931,110
1767761229,6254.0022532145185,12587081,110
1767761229,6402.6689529418945,12587132,110
1767761229,6480.752627054851,12587183,110
1767761229,6464.93395169576,12587232,112
1767761229,6357.184251149495,12587288,112
1767761229,6185.823281606038,12587340,112
1767761229,5996.528069178264,12587395,112
1767761229,5839.062531789144,12587445,112
1767761229,5749.15091196696,12587500,112
1767761229,5735.784371693929,12587554,112
1767761229,5781.846046447754,12587607,112
1767761229,5854.448477427165,12587661,112
1767761229,5920.896530151367,12587718,112
1767761229,5959.649880727132,12587766,112
1767761229,5963.352123896281,12587827,112
1767761229,5939.02309735616,12587884,112
1767761229,5902.481476465861,12587937,112
1767761229,5872.334639231364,12587995,112
1767761229,5861.13174756368,12588041,112
1767761229,5868.87280146281,12588103,112
1767761229,5886.326233545939,12588159,112
1767761229,5901.5679359436035,12588214,112
1767761229,5907.962719599406,12588271,112
1767761229,5905.654827753703,12588326,112
1767761229,5897.62528737386,12588386,112
1767761229,5888.586044311523,12588439,112
1767761229,5882.1431795756025,12588491,112
1767761229,5881.85469309489,12588543,112
1767761229,5912.770827611287,12588716,112
1767761229,5921.713908513387,12588762,112
1767761229,5929.599205652873,12588819,112
1767761229,5940.465529759725,12588879,112
1767761229,5955.514907836914,12588928,112
1767761229,5973.064502080281,12588987,112
1767761229,5989.796717961629,12589035,112
1767761229,6004.172960917155,12589088,112
1767761229,6016.674041748047,12589142,112
1767761229,6027.011473973592,12589191,112
1767761229,6035.233338673909,12589247,112
1767761229,6042.878230412801,12589298,112
1767761229,6053.648392359416,12589347,112
1767761229,6071.438392003377,12589404,112
1767761229,6095.5750942230225,12589452,112
1767761229,6121.779282887776,12589507,112
1767761229,6144.37739054362,12589553,112
1767761229,6160.436471303304,12589605,112
1767761229,6169.52379544576,12589654,112
1767761229,6170.77390352885,12589710,112
1767761229,6163.9463901519775,12589761,112
1767761229,6150.387525558472,12589811,112
1767761229,6134.280363718669,12589860,112
1767761229,6121.009985605876,12589913,112
1767761229,6097.2098509470625,12590065,112
1767761229,6086.151202519734,12590110,112
1767761229,6071.967283884685,12590165,112
1767761229,6053.407986958821,12590216,112
1767761229,6029.55977121989,12590269,112
1767761229,6001.288096110026,12590325,112
1767761229,5972.8240966796875,12590374,112
1767761229,5950.177907943726,12590429,112
1767761229,5935.272773106893,12590479,112
1767761229,5927.098989486694,12590531,112
1767761229,5922.194719314575,12590588,112
1767761229,5918.588638305664,12590637,112
1767761229,5915.7999356587725,12590691,112
1767761229,5911.809206008911,12590745,112
1767761229,5904.981692632039,12590804,112
1767761229,5895.509719848633,12590856,112
1767761229,5886.855125427246,12590908,112
1767761229,5884.354909261067,12590961,112
1767761229,5889.499584833781,12591016,112
1767761229,5900.221665700276,12591074,112
1767761229,5912.097692489624,12591127,112
1767761229,5922.242800394694,12591180,112
1767761229,5929.118394851685,12591234,112
1767761229,5930.080016454061,12591293,112
1767761229,5894.83658472697,12591458,112
1767761229,5885.412693023682,12591510,112
1767761229,5885.556936264038,12591565,112
1767761229,5895.4135576883955,12591618,112
1767761229,5911.953449249268,12591673,112
1767761229,5931.955178578694,12591729,112
1767761229,5952.485799789429,12591781,112
1767761229,5968.2563940684,12591831,112
1767761229,5974.314610163371,12591883,112
1767761229,5968.641042709351,12591940,112
1767761229,5954.793691635132,12591986,112
1767761229,5940.177043279012,12592038,112
1767761229,5930.897394816081,12592090,112
1767761229,5929.839611053467,12592144,112
1767761229,5937.292178471883,12592189,112
1767761229,5952.389637629191,12592240,112
1767761229,5972.920258839925,12592289,112
1767761229,5992.873907089233,12592337,112
1767761229,6005.374987920125,12592389,112
1767761229,6006.432771682739,12592435,112
1767761229,5998.355150222778,12592482,112
1767761229,5988.450447718303,12592529,112
1767761229,5983.017285664876,12592572,112
1767761229,5985.7579072316485,12592621,112
1767761229,5996.720393498738,12592673,112
1767761229,6014.12574450175,12592713,112
1767761229,6034.752527872722,12592756,112
1767761229,6051.8213113149,12592801,112
1767761229,6059.225797653198,12592849,112
1767761229,6054.610013961792,12592894,112
1767761229,6041.676203409831,12592935,112
1767761229,6027.828852335612,12592981,112
1767761229,6017.058690388997,12593022,112
1767761229,6008.307933807373,12593064,112
1767761229,5996.864636739095,12593110,112
1767761229,5978.497664133708,12593147,112
1767761229,5952.485799789429,12593195,112
1767761229,5920.079151789348,12593238,112
1767761229,5886.422395706177,12593283,112
1767761229,5859.352747599284,12593327,112
1767761229,5847.71712621053,12593358,112
1767761229,5855.650504430135,12593405,112
1767761229,5876.229206720988,12593451,112
1767761229,5894.596179326375,12593497,112
1767761229,5895.269314448039,12593543,112
1767761229,5872.334639231364,12593579,112
1767761229,5834.590991338094,12593621,112
1767761229,5801.222721735637,12593666,112
1767761229,5797.231992085774,12593712,112
1767761229,5843.341747919719,12593757,112
1767761229,5948.014259338379,12593795,112
1767761229,6100.335121154785,12593841,112
1767761229,6266.88798268636,12593885,112
1767761229,6402.765115102132,12593931,112
1767761229,6467.241843541463,12593971,112
1767761229,6440.60492515564,12594012,112
1767761229,6331.172386805217,12594056,112
1767761229,5768.383344014485,12594271,112
1767761229,5809.204181035359,12594314,112
1767761229,5871.805747350057,12594363,112
1767761229,5925.512313842773,12594399,112
1767761229,5952.341556549072,12594447,112
1767761229,5951.091448465983,12594490,112
1767761229,5931.33012453715,12594531,112
1767761229,5907.001097997029,12594571,112
1767761229,5889.739990234375,12594614,112
1767761229,5885.605017344157,12594654,112
1767761229,5893.874963124593,12594696,112
1767761229,5905.36634127299,12594743,112
1767761229,5909.212827682495,12594786,112
1767761229,5898.827314376831,12594822,112
1767761229,5876.902341842651,12594861,112
1767761229,5853.342612584432,12594904,112
1767761229,5837.475856145223,12594947,112
1767761229,5834.831396738688,12594993,112
1767761229,5845.649639765422,12595031,112
1767761229,5867.334206899007,12595068,112
1767761229,5966.477394104004,12595270,112
1767761229,5972.054799397786,12595318,112
1767761229,5980.03625869751,12595357,112
1767761229,5990.614096323649,12595400,112
1767761229,6025.85752805074,12595522,112
1767761229,6038.502852121989,12595570,112
1767761229,6050.090392430623,12595609,112
1767761229,6059.658527374268,12595650,112
1767761229,6069.27474339803,12595693,112
1767761229,6082.3047161102295,12595738,112
1767761229,6098.94076983134,12595785,112
1767761229,6116.442282994588,12595825,112
1767761229,6130.866607030232,12595870,112
1767761229,6140.194336573283,12595909,112
1767761229,6145.002444585164,12595955,112
1767761229,6144.5216337839765,12596006,112
1767761229,6138.078769048055,12596048,112
1767761229,6125.866174697876,12596096,112
1767761229,6111.201445261638,12596137,112
1767761229,6098.700364430745,12596187,112
1767761229,6044.272581736247,12596423,112
1767761229,6027.203798294067,12596471,112
1767761229,6007.730960845947,12596520,112
1767761229,5930.080016454061,12596717,112
1767761229,5917.050043741862,12596762,112
1767761229,5904.260476430257,12596816,112
1767761229,5892.8171793619795,12596863,112
1767761229,5886.566638946533,12596913,112
1767761229,5886.9993686676025,12596960,112
1767761229,5893.153746922811,12597015,112
1767761229,5902.241071065267,12597059,112
1767761229,5912.386178970337,12597109,112
1767761229,5922.6274490356445,12597161,112
1767761229,5930.080016454061,12597210,112
1767761229,5931.618611017863,12597258,112
1767761229,5925.896962483724,12597306,112
1767761229,5915.703773498535,12597361,112
1767761229,5907.049179077148,12597404,112
1767761230,5903.587341308594,12597456,112
1767761230,5905.558665593465,12597506,112
1767761230,5911.328395207723,12597546,112
1767761230,5919.261773427327,12597601,112
1767761230,5928.829908370972,12597648,112
1767761230,5939.840475718181,12597796,112
1767761230,5934.214989344279,12597839,112
1767761230,5930.12809753418,12597891,112
1767761230,5930.464665095012,12597942,112
1767761230,5935.320854187012,12597987,112
1767761230,5942.67725944519,12598034,112
1767761230,5950.995286305745,12598081,112
1767761230,5959.74604288737,12598130,112
1767761230,5966.381231943767,12598176,112
1767761230,5968.015988667806,12598228,112
1767761230,5963.688691457112,12598279,112
1767761230,5956.813097000122,12598323,112
1767761230,5954.264799753825,12598368,112
1767761230,5960.467259089152,12598420,112
1767761230,5976.141691207886,12598466,112
1767761230,5998.835961023967,12598516,112
1767761230,6025.136311848958,12598563,112
1767761230,6051.580905914307,12598612,112
1767761230,6071.823040644328,12598662,112
1767761230,6079.419851303101,12598712,112
1767761230,6070.717175801595,12598759,112
1767761230,6048.167149225871,12598807,112
1767761230,6019.895474116008,12598856,112
1767761230,5993.835528691609,12598903,112
1767761230,5976.045529047648,12598956,112
1767761230,5969.746907552083,12599011,112
1767761230,5975.94936688741,12599053,112
1767761230,5993.210474650065,12599305,112
1767761230,5955.466826756795,12599355,112
1767761230,5915.607611338298,12599405,112
1767761230,5910.22253036499,12599662,112
1767761230,5914.069016774495,12599712,112
1767761230,5892.38444964091,12599769,112
1767761230,5848.871072133382,12599822,112
1767761230,5802.857478459676,12599870,112
1767761230,5780.259370803833,12599925,112
1767761230,5804.347991943359,12599976,112
1767761230,5886.518557866414,12600025,112
1767761230,6021.097501118978,12600082,112
1767761230,6184.573173522949,12600133,112
1767761230,6337.615251541138,12600184,112
1767761230,6438.585519790649,12600235,112
1767761230,6458.202600479126,12600288,112
1767761230,6391.658385594686,12600340,111
1767761230,6260.541280110677,12600393,111
1767761230,6101.585229237874,12600444,111
1767761230,5801.559289296468,12600649,111
1767761230,5836.081504821777,12600702,111
1767761230,5876.13304456075,12600750,111
1767761230,5900.173584620158,12600802,111
1767761230,5900.462071100871,12600850,111
1767761230,5883.87409845988,12600902,111
1767761230,5862.670342127482,12600951,111
1767761230,5848.101774851481,12601004,111
1767761230,5846.418937047322,12601052,111
1767761230,5858.246882756551,12601100,111
1767761230,5880.21993637085,12601152,111
1767761230,5904.020071029663,12601194,111
1767761230,5921.18501663208,12601247,111
1767761230,5926.714340845744,12601295,111
1767761230,5922.2908814748125,12601340,111
1767761230,5914.982557296753,12601386,111
1767761230,5909.885962804158,12601435,111
1767761230,5908.828179041545,12601486,111
1767761230,5911.03990872701,12601534,111
1767761230,5915.703773498535,12601573,111
1767761230,5923.733313878377,12601621,111
1767761230,5933.974583943685,12601663,111
1767761230,5944.456259409587,12601713,111
1767761230,5953.3993403116865,12601755,111
1767761230,5961.525042851766,12601799,111
1767761230,5971.718231836955,12601845,111
1767761230,5984.315474828084,12601890,111
1767761230,5997.297366460164,12601939,111
1767761230,6007.875204086304,12601981,111
1767761230,6015.039285024007,12602022,111
1767761230,6020.7609335581465,12602067,111
1767761230,6025.232474009196,12602112,111
1767761230,6028.261582056682,12602154,111
1767761230,6030.136744181315,12602200,111
1767761230,6033.790906270345,12602238,111
1767761230,6044.128338495891,12602284,111
1767761230,6062.591473261516,12602325,111
1767761230,6086.439689000447,12602372,111
1767761230,6110.095580418904,12602414,111
1767761230,6128.991444905599,12602456,111
1767761230,6141.2521203358965,12602500,111
1767761230,6145.242849985759,12602545,111
1767761230,6140.819390614827,12602591,111
1767761230,6130.289634068807,12602636,111
1767761230,6118.702093760173,12602682,111
1767761230,6112.30731010437,12602723,111
1767761230,6111.778418223063,12602770,111
1767761230,6112.30731010437,12602814,111
1767761230,6106.20101292928,12602856,111
1767761230,6088.4590943654375,12602902,111
1767761230,6059.658527374268,12602952,111
1767761230,6022.876501083374,12602996,111
1767761230,5983.69042078654,12603048,111
1767761230,5948.8316377003985,12603091,111
1767761230,5922.81977335612,12603231,111
1767761230,5932.628313700358,12603282,111
1767761230,5936.763286590576,12603327,111
1767761230,5929.839611053467,12603380,111
1767761230,5913.684368133545,12603426,111
1767761230,5893.394152323405,12603477,111
1767761230,5875.027179718018,12603530,111
1767761230,5864.064693450928,12603573,111
1767761230,5864.6416664123535,12603621,111
1767761230,5878.296693166097,12603669,111
1767761230,5899.981260299683,12603724,111
1767761230,5921.136935551961,12603772,111
1767761230,5933.541854222615,12603822,111
1767761230,5934.503475824992,12603871,111
1767761230,5928.301016489665,12603921,111
1767761230,5920.511881510417,12603968,111
1767761230,5916.040341059367,12604023,111
1767761230,5917.482773462932,12604074,111
1767761230,5925.848881403605,12604118,111
1767761230,5940.946340560913,12604170,111
1767761230,5958.303610483806,12604223,111
1767761230,5971.237421035767,12604270,111
1767761230,5974.843502044678,12604322,111
1767761230,5969.07377243042,12604369,111
1767761230,5944.31201616923,12604519,111
1767761230,5941.715637842814,12604570,111
1767761230,5942.196448644002,12604612,111
1767761230,5946.379502614339,12604663,111
1767761230,5952.389637629191,12604714,111
1767761230,5957.197745641072,12604765,111
1767761230,5958.207448323567,12604804,111
1767761230,5955.9957186381025,12604851,111
1767761230,5954.07247543335,12604906,111
1767761230,5953.880151112874,12604954,111
1767761230,5955.3225835164385,12604996,111
1767761230,5957.2939078013105,12605047,111
1767761230,5961.669286092122,12605089,111
1767761230,5972.631772359212,12605141,111
1767761230,5992.20077196757,12605186,111
1767761230,6018.645366032918,12605233,111
1767761230,6047.39785194397,12605277,111
1767761230,6073.121229807536,12605325,111
1767761230,6091.776688893636,12605373,111
1767761230,6098.892688751221,12605419,111
1767761230,6016.866366068522,12605609,111
1767761230,6000.711123148601,12605647,111
1767761230,5992.489258448283,12605703,111
1767761230,5985.7579072316485,12605744,111
1767761230,5973.1606642405195,12605786,111
1767761230,5952.00498898824,12605837,111
1767761230,5889.499584833781,12605930,111
1767761230,5860.939423243205,12605978,111
1767761230,5845.264991124471,12606024,111
1767761230,5847.33247756958,12606070,111
1767761230,5861.468315124512,12606120,111
1767761230,5873.488585154216,12606166,111
1767761230,5868.584314982097,12606215,111
1767761230,5841.22618039449,12606260,111
1767761230,5801.7996946970625,12606305,111
1767761230,5771.508614222209,12606353,111
1767761230,5775.835911432902,12606402,111
1767761230,5834.975639979045,12606453,111
1767761230,5954.553286234538,12606498,111
1767761230,6120.721499125163,12606544,111
1767761230,6373.916467030843,12606775,111
1767761230,6214.96041615804,12606825,111
1767761230,6048.744122187297,12606871,111
1767761230,5914.020935694377,12606920,111
1767761230,5834.687153498332,12606964,111
1767761230,5900.317827860515,12607194,111
1767761230,5882.287422815959,12607231,111
1767761230,5858.391125996907,12607274,111
1767761230,5840.697288513184,12607364,111
1767761230,5854.20807202657,12607410,111
1767761230,5876.758098602295,12607450,111
1767761230,5897.62528737386,12607491,111
1767761230,5907.337665557861,12607535,111
1767761230,5902.625719706218,12607576,111
1767761230,5888.778368631999,12607617,111
1767761230,5877.5754769643145,12607658,111
1767761230,5877.286990483602,12607698,111
1767761230,5889.547665913899,12607742,111
1767761230,5909.02050336202,12607778,111
1767761230,5928.349097569783,12607813,111
1767761230,5942.72534052531,12607857,111
1767761230,5948.975880940755,12607895,111
1767761230,5946.956475575765,12607938,111
1767761230,5939.984718958537,12607978,111
1767761230,5933.926502863566,12608013,111
1767761230,5935.465097427368,12608051,111
1767761230,5945.802529652913,12608092,111
1767761230,5960.707664489746,12608135,111
1767761230,6013.212203979492,12608330,111
1767761230,6032.156149546306,12608370,111
1767761230,6056.485176086426,12608409,111
1767761230,6151.974201202393,12608580,111
1767761230,6155.33987681071,12608615,111
1767761230,6154.666741689046,12608662,111
1767761230,6154.907147089641,12608702,111
1767761230,6157.695849736531,12608746,111
1767761230,6161.205768585205,12608792,111
1767761230,6162.455876668294,12608835,111
1767761230,6159.330606460571,12608879,111
1767761230,6148.704687754313,12608929,111
1767761230,6127.74133682251,12608974,111
1767761230,6096.48863474528,12609022,111
1767761230,6059.177716573079,12609071,111
1767761230,6023.549636205037,12609119,111
1767761231,5994.556744893392,12609164,111
1767761231,5972.295204798381,12609220,111
1767761231,5953.543583552043,12609268,111
1767761231,5935.128529866536,12609317,111
1767761231,5917.338530222575,12609369,111
1767761231,5892.095963160197,12609636,111
1767761231,5913.828611373901,12609687,111
1767761231,5936.811367670695,12609744,111
1767761231,5953.687826792399,12609854,111
1767761231,5944.263935089111,12609910,111
1767761231,5928.829908370972,12609964,111
1767761231,5913.684368133545,12610020,111
1767761231,5904.1643142700195,12610078,111
1767761231,5903.635422388713,12610134,111
1767761231,5913.5401248931885,12610186,111
1767761231,5929.070313771565,12610251,111
1767761231,5941.956043243408,12610309,111
1767761231,5945.177475611369,12610369,111
1767761231,5937.388340632121,12610429,111
1767761231,5924.358367919922,12610478,111
1767761231,5912.866989771525,12610540,111
1767761231,5907.481908798218,12610602,111
1767761231,5909.02050336202,12610661,111
1767761231,5915.944178899129,12610719,111
1767761231,5926.425854365031,12610777,111
1767761231,5936.330556869507,12610840,111
1767761231,5941.523313522339,12610899,111
1767761231,5940.321286519368,12610965,111
1767761231,5935.5612595876055,12611021,111
1767761231,5933.734178543091,12611075,111
1767761231,5938.590367635091,12611142,111
1767761231,5949.1682052612305,12611208,111
1767761231,5961.236556371053,12611266,111
1767761231,5970.852772394816,12611328,111
1767761231,5977.632204691569,12611387,111
1767761231,5981.622934341431,12611452,111
1767761231,5983.065366744995,12611516,111
1767761231,5983.017285664876,12611576,111
1767761231,5984.123150507609,12611640,111
1767761231,5990.421772003174,12611707,111
1767761231,6002.778609593709,12611769,111
1767761231,6018.5972849528,12611835,111
1767761231,6034.223635991414,12611898,111
1767761231,6047.157446543376,12611960,111
1767761231,6057.975689570109,12612023,111
1767761231,6065.668662389119,12612092,111
1767761231,6067.351500193278,12612159,111
1767761231,6060.043176015218,12612226,111
1767761231,6043.7436898549395,12612294,111
1767761231,6022.876501083374,12612364,111
1767761231,6001.865069071452,12612431,111
1767761231,5983.305772145589,12612499,111
1767761231,5967.775583267212,12612569,111
1767761231,5955.034097035726,12612633,111
1767761231,5944.985151290894,12612709,111
1767761231,5935.513178507487,12612780,111
1767761231,5923.540989557902,12612849,111
1767761231,5908.828179041545,12612919,111
1767761231,5895.365476608276,12612990,111
1767761231,5890.220801035563,12613065,111
1767761231,5896.230936050415,12613138,111
1767761231,5908.010800679524,12613212,111
1767761231,5914.453665415446,12613286,111
1767761231,5904.452800750732,12613355,111
1767761231,5875.027179718018,12613433,111
1767761231,5832.138856252034,12613506,111
1767761231,5792.135397593181,12613581,111
1767761231,5778.672695159912,12613655,111
1767761231,5815.166234970093,12613729,111
1767761231,5914.982557296753,12613803,111
1767761231,6068.842013676961,12613884,111
1767761231,6244.097550710042,12613957,111
1767761231,6394.5432504018145,12614032,111
1767761231,6477.194627126058,12614105,111
1767761231,6469.117005666097,12614182,110
1767761231,6372.906764348348,12614256,110
1767761231,6216.066281000773,12614331,110
1767761231,5811.656316121419,12614557,110
1767761231,5796.174208323161,12614632,110
1767761231,5831.802288691203,12614702,110
1767761231,5886.230071385701,12614773,110
1767761231,5928.49334081014,12614847,110
1767761231,5892.432530721028,12615063,110
1767761231,5856.996774673462,12615131,110
1767761231,5834.879477818807,12615200,110
1767761231,5834.254423777263,12615268,110
1767761231,5851.0347207387285,12615336,110
1767761231,5873.152017593384,12615406,110
1767761231,5887.816747029622,12615467,110
1767761231,5889.211098353068,12615535,110
1767761231,5881.710449854533,12615598,110
1767761231,5873.248179753621,12615666,110
1767761231,5870.603720347087,12615731,110
1767761231,5876.517693201701,12615789,110
1767761231,5890.076557795207,12615854,110
1767761231,5909.164746602376,12615916,110
1767761231,5929.070313771565,12615974,110
1767761231,5944.600502649943,12616037,110
1767761231,5953.110853830974,12616097,110
1767761231,5956.188042958577,12616154,110
1767761231,5959.361394246419,12616210,110
1767761231,5965.756177902222,12616272,110
1767761231,5974.699258804321,12616328,110
1767761231,6018.549203872681,12616610,110
1767761231,6033.838987350464,12616662,110
1767761231,6050.811608632405,12616710,110
1767761231,6117.884715398152,12617089,110
1767761231,6125.7219314575195,12617149,110
1767761231,6135.049661000569,12617204,110
1767761231,6143.319606781006,12617254,110
1767761231,6150.099039077759,12617310,110
1767761231,6153.5608768463135,12617371,110
1767761231,6150.531768798828,12617422,110
1767761231,6138.27109336853,12617478,110
1767761231,6116.490364074707,12617533,110
1767761231,6088.7956619262695,12617587,110
1767761231,6058.119932810466,12617647,110
1767761231,6025.9536902109785,12617706,110
1767761231,5993.354717890422,12617764,110
1767761231,5962.678988774617,12617818,110
1767761231,5938.686529795329,12617876,110
1767761231,5923.444827397664,12617941,110
1767761231,5915.607611338298,12617998,110
1767761231,5911.713043848674,12618059,110
1767761231,5909.260908762614,12618112,110
1767761231,5908.539692560832,12618174,110
1767761231,5908.058881759644,12618422,110
1767761231,5906.856854756673,12618481,110
1767761231,5907.289584477742,12618543,110
1767761231,5908.347368240356,12618603,110
1767761231,5908.347368240356,12618662,110
1767761231,5907.578070958455,12618727,110
1767761231,5909.164746602376,12618788,110
1767761231,5914.790232976277,12618852,110
1767761231,5922.81977335612,12618907,110
1767761231,5930.272340774536,12618974,110
1767761231,5934.647719065349,12619037,110
1767761231,5936.907529830933,12619094,110
1767761231,5937.772989273071,12619155,110
1767761231,5932.53215154012,12619340,110
1767761231,5933.686097462972,12619396,110
1767761231,5938.975016276042,12619458,110
1767761231,5945.273637771606,12619514,110
1767761231,5948.398907979329,12619574,110
1767761231,5945.94677289327,12619636,110
1767761231,5940.080881118774,12619690,110
1767761231,5933.926502863566,12619748,110
1767761231,5929.647286732991,12619807,110
1767761231,5928.829908370972,12619863,110
1767761231,5933.205286661784,12619923,110
1767761231,5945.12939453125,12619973,110
1767761231,5963.640610376994,12620028,110
1767761231,5983.642339706421,12620091,110
1767761231,6007.009744644165,12620195,110
1767761231,6008.692582448323,12620249,110
1767761231,6007.730960845947,12620304,110
1767761231,6006.721258163452,12620363,110
1767761231,6007.971366246541,12620413,110
1767761231,6013.404528299968,12620466,110
1767761231,6024.992068608602,12620520,110
1767761231,6040.762662887573,12620568,110
1767761231,6054.465770721436,12620626,110
1767761231,6038.406689961751,12620782,110
1767761231,6020.568609237671,12620826,110
1767761231,6003.932555516561,12620888,110
1767761231,5990.373690923055,12620940,110
1767761231,5979.795853296916,12620989,110
1767761231,5971.333583196004,12621038,110
1767761231,5961.332718531291,12621090,110
1767761231,5945.177475611369,12621137,110
1767761231,5921.425422032674,12621191,110
1767761231,5894.83658472697,12621243,110
1767761231,5875.604152679443,12621292,110
1767761231,5871.517260869344,12621339,110
1767761231,5882.191260655721,12621389,110
1767761231,5898.731152216594,12621443,110
1767761231,5907.626152038574,12621488,110
1767761231,5898.731152216594,12621540,110
1767761231,5868.584314982097,12621591,110
1767761231,5824.445883433024,12621641,110
1767761231,5786.07718149821,12621687,110
1767761231,5780.78826268514,12621741,110
1767761231,5834.062099456787,12621787,110
1767761231,5954.120556513469,12621838,110
1767761231,6123.798688252767,12621883,110
1767761231,6304.535468419393,12621935,110
1767761231,6448.394060134888,12621986,110
1767761231,6516.332626342773,12622034,110
1767761231,6488.686005274455,12622081,110
1767761231,6372.089385986328,12622132,110
1767761231,6198.564767837524,12622176,110
1767761231,6015.472014745076,12622229,110
1767761231,5870.363314946492,12622271,110
1767761231,5792.375802993774,12622324,110
1767761231,5783.576965332031,12622363,110
1767761231,5822.666883468628,12622412,110
1767761231,5877.815882364909,12622461,110
1767761231,5867.045720418294,12622685,110
1767761231,5851.082801818848,12622724,110
1767761231,5854.785044987996,12622772,110
1767761231,5899.885098139445,12622947,110
1767761231,5896.0386117299395,12622988,110
1767761231,5893.682638804118,12623031,110
1767761231,5897.096395492554,12623071,110
1767761231,5907.049179077148,12623114,110
1767761231,5922.146638234456,12623164,110
1767761231,5936.8594487508135,12623204,110
1767761231,5944.119691848755,12623242,110
1767761231,5940.177043279012,12623285,110
1767761231,5910.60717900594,12623408,110
1767761231,5918.059746424357,12623449,110
1767761231,5934.9362055460615,12623492,110
1767761231,5956.284205118815,12623529,110
1767761232,5979.026556015015,12623573,110
1767761232,6000.182231267293,12623620,110
1767761232,6017.876068751018,12623660,110
1767761232,6032.1080684661865,12623704,110
1767761232,6045.282284418742,12623744,110
1767761232,6061.533689498901,12623791,110
1767761232,6081.775824228923,12623838,110
1767761232,6102.210283279419,12623883,110
1767761232,6118.557850519816,12624112,110
1767761232,6119.759877522786,12624161,110
1767761232,6124.375661214192,12624210,110
1767761232,6132.934093475342,12624257,110
1767761232,6142.598390579224,12624309,110
1767761232,6147.502660751343,12624361,110
1767761232,6142.502228418986,12624409,110
1767761232,6125.914255777995,12624463,110
1767761232,6101.633310317993,12624516,110
1767761232,6074.563662211101,12624568,110
1767761232,6047.157446543376,12624622,110
1767761232,6020.376284917195,12624677,110
1767761232,5994.2201773325605,12624734,110
1767761232,5970.612366994222,12624788,110
1767761232,5950.081745783488,12624841,110
1767761232,5931.282043457031,12624900,110
1767761232,5912.866989771525,12624956,110
1767761232,5895.365476608276,12625020,110
1767761232,5882.672071456909,12625073,110
1767761232,5877.527395884196,12625134,110
1767761232,5879.498720169067,12625193,110
1767761232,5886.518557866414,12625252,110
1767761232,5896.3751792907715,12625314,110
1767761232,5944.937070210774,12625557,110
1767761232,5943.927367528279,12625620,110
1767761232,5936.763286590576,12625676,110
1767761232,5926.714340845744,12625740,110
1767761232,5916.184584299724,12625797,110
1767761232,5907.481908798218,12625859,110
1767761232,5903.154611587524,12625918,110
1767761232,5906.472206115723,12625978,110
1767761232,5917.001962661743,12626042,110
1767761232,5929.791529973348,12626097,110
1767761232,5938.25380007426,12626164,110
1767761232,5938.301881154378,12626218,110
1767761232,5931.955178578694,12626276,110
1767761232,5923.877557118733,12626332,110
1767761232,5918.78096262614,12626395,110
1767761232,5920.127232869466,12626458,110
1767761232,5929.262638092041,12626504,110
1767761232,5946.619908014934,12626566,110
1767761232,5967.727502187093,12626623,110
1767761232,5984.748204549153,12626677,110
1767761232,5990.854501724243,12626731,110
1767761232,5971.09317779541,12627000,110
1767761232,5986.575285593669,12627053,110
1767761232,6004.36528523763,12627105,110
1767761232,6029.12704149882,12627459,110
1767761232,6048.070987065633,12627509,110
1767761232,6059.321959813436,12627560,110
1767761232,6057.302554448445,12627605,110
1767761232,6041.29155476888,12627658,110
1767761232,6014.846960703532,12627701,110
1767761232,5985.70982615153,12627753,110
1767761232,5962.342421213786,12627804,110
1767761232,5952.053070068359,12627849,110
1767761232,5954.312880833943,12627899,110
1767761232,5960.755745569865,12627948,110
1767761232,5960.803826649983,12628000,110
1767761232,5948.639313379924,12628048,110
1767761232,5927.868286768596,12628102,110
1767761232,5907.337665557861,12628145,110
1767761232,5894.355773925781,12628197,110
1767761232,5891.230503718059,12628243,110
1767761232,5892.961422602336,12628300,110
1767761232,5891.13434155782,12628349,110
1767761232,5875.988801320394,12628400,110
1767761232,5842.524369557698,12628451,110
1767761232,5797.857046127319,12628498,110
1767761232,5762.90210088094,12628557,110
1767761232,5767.37364133199,12628604,110
1767761232,5834.302504857381,12628657,110
1767761232,5966.862042744954,12628709,110
1767761232,6144.1850662231445,12628761,110
1767761232,6325.691143671672,12628811,110
1767761232,6465.991735458374,12628864,110
1767761232,6527.198950449626,12628914,110
1767761232,6491.186221440633,12628969,110
1767761232,6367.906332015991,12629027,110
1767761232,6192.410389582316,12629076,110
1767761232,6014.173825581868,12629127,110
1767761232,5876.9504229227705,12629181,110
1767761232,5803.434451421102,12629233,110
1767761232,5791.510343551636,12629286,110
1767761232,5820.358991622925,12629338,110
1767761232,5863.0069096883135,12629390,110
1767761232,5895.894368489583,12629445,110
1767761232,5905.75098991394,12629493,110
1767761232,5892.961422602336,12629551,110
1767761232,5869.017044703166,12629596,110
1767761232,5850.794315338135,12629650,110
1767761232,5848.871072133382,12629706,110
1767761232,5862.33377456665,12629755,110
1767761232,5902.577638626099,12629905,110
1767761232,5898.538827896118,12629958,110
1767761232,5889.547665913899,12630011,110
1767761232,5881.8066120147705,12630057,110
1767761232,5880.748828252156,12630110,110
1767761232,5890.268882115682,12630162,110
1767761232,5940.513610839844,12630313,110
1767761232,5942.917664845784,12630354,110
1767761232,5938.4942054748535,12630403,110
1767761232,5933.6380163828535,12630456,110
1767761232,5933.205286661784,12630506,110
1767761232,5939.263502756755,12630554,110
1767761232,5951.62034034729,12630603,110
1767761232,5970.131556193034,12630651,110
1767761232,5992.441177368164,12630697,110
1767761232,6014.269987742106,12630750,110
1767761232,6031.96382522583,12630799,110
1767761232,6044.801473617554,12630850,110
1767761232,6056.196689605713,12630896,110
1767761232,6069.515148798625,12630946,110
1767761232,6084.612607955933,12630998,110
1767761232,6099.32541847229,12631051,110
1767761232,6111.393769582112,12631102,110
1767761232,6133.559147516887,12631367,110
1767761232,6129.664580027263,12631419,110
1767761232,6126.539309819539,12631472,110
1767761232,6105.479796727498,12631638,110
1767761232,6091.440121332805,12631695,110
1767761232,6076.1503378550215,12631759,110
1767761232,6059.273878733317,12631815,110
1767761232,6039.945284525554,12631874,110
1767761232,6018.212636311849,12631934,110
1767761232,5996.624231338501,12631991,110
1767761232,5977.0552317301435,12632056,110
1767761232,5958.544015884399,12632114,110
1767761232,5939.503908157349,12632180,110
1767761232,5919.16561126709,12632233,110
1767761232,5900.558233261108,12632302,110
1767761232,5886.6628011067705,12632362,110
1767761232,5878.392855326335,12632427,110
1767761232,5875.3156661987305,12632497,110
1767761232,5876.806179682414,12632554,110
1767761232,5884.210666020711,12632620,110
1767761232,5897.529125213623,12632687,110
1767761232,5913.347800572713,12632750,110
1767761232,5927.531719207764,12632815,110
1767761232,5943.590799967448,12633087,110
1767761232,5939.551989237468,12633148,110
1767761232,5932.580232620239,12633218,110
1767761232,5926.377773284912,12633277,110
1767761232,5923.973719278972,12633349,110
1767761232,5925.512313842773,12633415,110
1767761232,5929.358800252278,12633479,110
1767761232,5933.78225962321,12633549,110
1767761232,5939.119259516398,12633612,110
1767761232,5945.273637771606,12633679,110
1767761232,5949.745178222656,12633751,110
1767761232,5950.177907943726,12633817,110
1767761232,5945.994853973389,12633881,110
1767761232,5940.802097320557,12633941,110
1767761232,5938.013394673665,12634013,110
1767761232,5938.1576379140215,12634081,110
1767761232,5939.888556798299,12634138,110
1767761232,5941.234827041626,12634207,110
1767761232,5942.67725944519,12634273,110
1767761232,5944.552421569824,12634341,110
1767761232,5945.610205332438,12634406,110
1767761232,5944.888989130656,12634465,110
1767761232,5943.061908086141,12634535,110
1767761232,5943.783124287923,12634597,110
1767761232,5999.364852905273,12634917,110
1767761232,6017.443339029948,12634983,110
1767761232,6038.550933202107,12635046,110
1767761232,6091.007391611735,12635301,110
1767761232,6081.102689107259,12635357,110
1767761232,6058.6488246917725,12635423,110
1767761232,6027.732690175374,12635481,110
1767761232,5997.585852940877,12635546,110
1767761232,5976.237853368123,12635609,110
1767761232,5965.563853581746,12635672,110
1767761232,5961.380799611409,12635731,110
1767761232,5956.47652943929,12635794,110
1767761232,5946.283340454102,12635852,110
1767761232,5929.358800252278,12635920,110
1767761232,5907.481908798218,12635977,110
1767761232,5886.230071385701,12636039,110
1767761232,5872.623125712077,12636097,110
1767761232,5883.249044418335,12636219,110
1767761232,5893.490314483643,12636278,110
1767761232,5888.009071350098,12636344,110
1767761232,5858.006477355957,12636402,110
1767761232,5810.069640477498,12636459,110
1767761232,5789.779424667358,12636638,110
1767761232,5897.000233332316,12636694,110
1767761232,6063.168446222941,12636749,110
1767761232,6256.35822614034,12636809,110
1767761232,6427.478790283203,12636861,110
1767761232,6527.727842330933,12636920,110
1767761232,6526.525815327962,12636976,109
1767761232,6425.459384918213,12637028,109
1767761232,6255.588928858439,12637089,109
1767761232,6064.707040786743,12637133,109
1767761232,5902.048746744792,12637192,109
1767761232,5802.232424418132,12637244,109
1767761232,5777.470668156941,12637297,109
1767761232,5813.531478246053,12637348,109
1767761232,5876.902341842651,12637400,109
1767761232,5931.185881296794,12637450,109
1767761232,5951.7645835876465,12637500,109
1767761232,5935.705502827962,12637546,109
1767761233,5897.384881973267,12637593,109
1767761233,5856.948693593343,12637642,109
1767761233,5831.994613011678,12637693,109
1767761233,5830.071369806926,12637732,109
1767761233,5849.207639694214,12637777,109
1767761233,5878.200531005859,12637819,109
1767761233,5868.055423100789,12638030,109
1767761233,5868.488152821858,12638065,109
1767761233,5882.816314697266,12638104,109
1767761233,5959.842205047607,12638251,109
1767761233,5958.399772644043,12638290,109
1767761233,5949.023962020874,12638327,109
1767761233,5939.696232477824,12638358,109
1767761233,5937.340259552002,12638395,109
1767761233,5943.831205368042,12638428,109
1767761233,5957.2939078013105,12638468,109
1767761233,5974.891583124797,12638497,109
1767761233,5996.335744857788,12638531,109
1767761233,6021.770636240642,12638565,109
1767761233,6049.080689748128,12638603,109
1767761233,6075.38104057312,12638639,109
1767761233,6097.931067148845,12638676,109
1767761233,6116.826931635539,12638703,109
1767761233,6132.59752591451,12638746,109
1767761233,6144.233147303264,12638784,109
1767761233,6159.186363220215,12638978,109
1767761233,6159.330606460571,12639019,109
1767761233,6154.378255208333,12639060,109
1767761233,6102.787256240845,12639246,109
1767761233,6079.131364822388,12639289,109
1767761233,6050.715446472168,12639344,109
1767761233,6019.318501154582,12639391,109
1767761233,5985.661745071411,12639445,109
1767761233,5951.4280160268145,12639497,109
1767761233,5920.127232869466,12639556,109
1767761233,5897.961854934692,12639609,109
1767761233,5888.970692952474,12639669,109
1767761233,5891.615152359009,12639730,109
1767761233,5900.173584620158,12639784,109
1767761233,5907.481908798218,12639851,109
1767761233,5910.462935765584,12639907,109
1767761233,5908.876260121663,12639970,109
1767761233,5903.73158454895,12640037,109
1767761233,5897.913773854573,12640099,109
1767761233,5895.60588200887,12640168,109
1767761233,5902.000665664673,12640227,109
1767761233,5918.829043706258,12640303,109
1767761233,5941.282908121745,12640368,109
1767761233,5965.227286020915,12640646,109
1767761233,5952.1011511484785,12640718,109
1767761233,5937.147935231526,12640786,109
1767761233,5923.492908477783,12640853,109
1767761233,5915.271043777466,12640924,109
1767761233,5914.117097854614,12640994,109
1767761233,5917.4346923828125,12641067,109
1767761233,5921.088854471843,12641136,109
1767761233,5922.338962554932,12641203,109
1767761233,5922.867854436238,12641271,109
1767761233,5925.368070602417,12641344,109
1767761233,5930.031935373942,12641406,109
1767761233,5935.5612595876055,12641483,109
1767761233,5940.080881118774,12641550,109
1767761233,5943.975448608398,12641606,109
1767761233,5948.254664738973,12641677,109
1767761233,5952.00498898824,12641736,109
1767761233,5954.601367314656,12641805,109
1767761233,5956.813097000122,12641868,109
1767761233,5962.150096893311,12641927,109
1767761233,5973.1606642405195,12641990,109
1767761233,5987.969636917114,12642052,109
1767761233,6001.816987991333,12642111,109
1767761233,6009.317636489868,12642166,109
1767761233,6008.7887446085615,12642221,109
1767761233,6001.191933949788,12642280,109
1767761233,5988.113880157471,12642331,109
1767761233,5973.593393961589,12642391,109
1767761233,5963.688691457112,12642434,109
1767761233,5966.381231943767,12642491,109
1767761233,5986.286799112956,12642541,109
1767761233,6019.895474116008,12642590,109
1767761233,6057.591040929158,12642643,109
1767761233,6087.641716003418,12642687,109
1767761233,6102.258364359538,12642735,109
1767761233,6098.652283350627,12642780,109
1767761233,6078.21782430013,12642831,109
1767761233,6046.772797902425,12642875,109
1767761233,6012.971798578898,12642917,109
1767761233,5986.334880193074,12642963,109
1767761233,5970.852772394816,12643008,109
1767761233,5962.19817797343,12643051,109
1767761233,5951.668421427409,12643098,109
1767761233,5932.3398272196455,12643139,109
1767761233,5905.606746673584,12643183,109
1767761233,5879.78720664978,12643227,109
1767761233,5864.016612370809,12643269,109
1767761233,5879.017909367879,12643357,109
1767761233,5899.9331792195635,12643399,109
1767761233,5912.2419357299805,12643448,109
1767761233,5900.365908940633,12643493,109
1767761233,5858.583450317383,12643543,109
1767761233,5815.502802530925,12643728,109
1767761233,5957.101583480835,12643782,109
1767761233,6145.098606745402,12643829,109
1767761233,6333.384116490682,12643883,109
1767761233,6468.7323570251465,12643933,109
1767761233,6507.9184373219805,12643985,109
1767761233,6435.556411743164,12644043,108
1767761233,6271.984577178955,12644095,108
1767761233,6068.409283955892,12644153,108
1767761233,5886.71088218689,12644211,108
1767761233,5775.210857391357,12644274,108
1767761233,5753.478209177653,12644337,108
1767761233,5808.627208073934,12644399,108
1767761233,5905.847152074178,12644460,108
1767761233,6001.865069071452,12644523,108
1767761233,6060.475905736287,12644596,108
1767761233,5934.214989344279,12644867,108
1767761233,5923.781394958496,12644938,108
1767761233,5941.956043243408,12645010,108
1767761233,5972.968339920044,12645086,108
1767761233,5998.114744822185,12645157,108
1767761233,5947.196880976359,12645392,108
1767761233,5907.097260157268,12645470,108
1767761233,5880.796909332275,12645544,108
1767761233,5877.479314804077,12645627,108
1767761233,5893.153746922811,12645702,108
1767761233,5914.790232976277,12645785,108
1767761233,5927.868286768596,12645866,108
1767761233,5925.368070602417,12645944,108
1767761233,5909.357070922852,12646024,108
1767761233,5887.432098388672,12646108,108
1767761233,5869.545936584473,12646190,108
1767761233,5864.449342091878,12646273,108
1767761233,5877.863963445027,12646354,108
1767761233,5908.683935801188,12646438,108
1767761233,5948.350826899211,12646522,108
1767761233,5986.334880193074,12646602,108
1767761233,6015.472014745076,12646685,108
1767761233,6036.146879196167,12646768,108
1767761233,6053.215662638347,12646848,108
1767761233,6069.947878519694,12646929,108
1767761233,6087.401310602824,12647016,108
1767761233,6103.845040003459,12647097,108
1767761233,6117.9327964782715,12647181,108
1767761233,6128.654877344768,12647256,108
1767761233,6134.1361204783125,12647342,108
1767761233,6134.520769119263,12647424,108
1767761233,6165.86963335673,12647824,108
1767761233,6166.061957677205,12647904,108
1767761233,6152.214606602986,12647983,108
1767761233,6088.939905166626,12648141,108
1767761233,6048.3113924662275,12648229,108
1767761233,6009.846528371175,12648305,108
1767761233,5980.613231658936,12648383,108
1767761233,5963.977177937825,12648467,108
1767761233,5956.716934839885,12648546,108
1767761233,5952.43771870931,12648623,108
1767761233,5945.5140431722,12648707,108
1767761233,5935.417016347249,12648786,108
1767761233,5925.512313842773,12648864,108
1767761233,5918.34823290507,12648943,108
1767761233,5915.559530258179,12649021,108
1767761233,5917.242368062337,12649105,108
1767761233,5923.733313878377,12649183,108
1767761233,5933.445692062378,12649263,108
1767761233,5941.715637842814,12649342,108
1767761233,5943.927367528279,12649419,108
1767761233,5937.869151433309,12649500,108
1767761233,5926.954746246338,12649579,108
1767761233,5916.809638341268,12649659,108
1767761233,5910.126368204753,12649895,108
1767761233,5915.51144917806,12649974,108
1767761233,5924.550692240397,12650053,108
1767761233,5934.743881225586,12650127,108
1767761233,5943.061908086141,12650210,108
1767761233,5947.773853937785,12650287,108
1767761233,5950.177907943726,12650365,108
1767761233,5953.0627727508545,12650435,108
1767761233,5955.947637557983,12650519,108
1767761233,5957.534313201904,12650599,108
1767761233,5956.668853759766,12650672,108
1767761233,5955.034097035726,12650751,108
1767761233,5954.986015955607,12650820,108
1767761233,5955.803394317627,12650897,108
1767761233,5955.611069997151,12650978,108
1767761233,5952.149232228597,12651050,108
1767761233,5946.76415125529,12651122,108
1767761233,5942.004124323527,12651198,108
1767761233,5938.686529795329,12651267,108
1767761233,5937.676827112834,12651341,108
1767761233,5939.407745997111,12651415,108
1767761233,5946.283340454102,12651484,108
1767761233,5959.505637486775,12651557,108
1767761233,5975.660880406697,12651625,108
1767761233,5989.940961201985,12651700,108
1767761233,5998.114744822185,12651773,108
1767761233,6001.14385286967,12651842,108
1767761233,6003.2594203948975,12651913,108
1767761233,6007.63479868571,12651980,108
1767761233,6016.2413120269775,12652053,108
1767761233,6028.982798258464,12652122,108
1767761233,6045.618851979573,12652186,108
1767761233,6063.601175944011,12652260,108
1767761233,6076.679229736328,12652326,108
1767761233,6079.03520266215,12652396,108
1767761233,6067.688067754109,12652464,108
1767761233,6046.3400681813555,12652535,108
1767761233,6021.00133895874,12652603,108
1767761233,5995.229880015056,12652671,108
1767761233,5969.8911507924395,12652738,108
1767761233,5864.016612370809,12653082,108
1767761233,5863.872369130452,12653147,108
1767761233,5875.171422958374,12653213,108
1767761234,5902.673800786336,12653424,108
1767761234,5873.873233795166,12653496,108
1767761234,5829.302072525024,12653561,108
1767761234,5791.221857070923,12653630,108
1767761234,5786.5579922993975,12653700,108
1767761234,5837.908585866292,12653772,108
1767761234,5952.774286270142,12653844,108
1767761234,6118.846337000529,12653909,108
1767761234,6302.467981974284,12653982,108
1767761234,6381.75368309021,12654265,110
1767761234,6201.786200205485,12654335,110
1767761234,6014.12574450175,12654413,110
1767761234,5866.709152857463,12654479,110
1767761234,5788.5293165842695,12654550,110
1767761234,5783.384641011556,12654624,110
1767761234,5830.023288726807,12654695,110
1767761234,5890.74969291687,12654768,110
1767761234,5929.551124572754,12654845,110
1767761234,5926.954746246338,12654915,110
1767761234,5888.105233510335,12654983,110
1767761234,5836.1295859018965,12655055,110
1767761234,5796.895424524943,12655133,110
1767761234,5788.144667943318,12655201,110
1767761234,5811.896721522014,12655275,110
1767761234,5857.381423314412,12655345,110
1767761234,5905.943314234416,12655419,110
1767761234,5938.061475753784,12655498,110
1767761234,5943.590799967448,12655566,110
1767761234,5926.137367884318,12655640,110
1767761234,5982.632637023926,12656080,110
1767761234,5987.536907196045,12656153,110
1767761234,5970.804691314697,12656228,110
1767761234,5885.989665985107,12656449,110
1767761234,5892.095963160197,12656525,110
1767761234,5922.867854436238,12656595,110
1767761234,5967.919826507568,12656677,110
1767761234,6013.116041819255,12656744,110
1767761234,6048.888365427653,12656825,110
1767761234,6071.774959564209,12656898,110
1767761234,6082.785526911418,12656974,110
1767761234,6086.1992835998535,12657052,110
1767761234,6087.737878163655,12657127,110
1767761234,6093.65185101827,12657204,110
1767761234,6107.066472371419,12657282,110
1767761234,6125.28920173645,12657356,110
1767761234,6142.598390579224,12657438,110
1767761234,6154.5224984486895,12657514,110
1767761234,6161.253849665324,12657592,110
1767761234,6165.196498235066,12657992,110
1767761234,6152.5992552439375,12658070,110
1767761234,6132.068634033203,12658150,110
1767761234,5999.268690745036,12658485,110
1767761234,5976.959069569905,12658570,110
1767761234,5962.053934733073,12658650,110
1767761234,5951.331853866577,12658734,110
1767761234,5943.206151326497,12658823,110
1767761234,5936.907529830933,12658906,110
1767761234,5930.272340774536,12658993,110
1767761234,5920.848449071248,12659075,110
1767761234,5907.962719599406,12659164,110
1767761234,5878.633260726929,12659420,110
1767761234,5878.15244992574,12659508,110
1767761234,5882.095098495483,12659593,110
1767761234,5891.711314519246,12659684,110
1767761234,5908.058881759644,12659767,110
1767761234,5928.012530008952,12659853,110
1767761234,5946.619908014934,12659940,110
1767761234,5958.92866452535,12660028,110
1767761234,5964.169502258301,12660111,110
1767761234,5958.159367243449,12660372,110
1767761234,5954.793691635132,12660452,110
1767761234,5954.841772715251,12660535,110
1767761234,5959.409475326538,12660619,110
1767761234,5965.083042780559,12660704,110
1767761234,5966.429313023885,12660790,110
1767761234,5959.361394246419,12660875,110
1767761234,5945.225556691487,12660947,110
1767761234,5929.7434488932295,12661032,110
1767761234,5917.819341023763,12661116,110
1767761234,5912.963151931763,12661195,110
1767761234,5916.184584299724,12661274,110
1767761234,5927.724043528239,12661352,110
1767761234,5945.465962092082,12661430,110
1767761234,5963.015556335449,12661509,110
1767761234,5973.7857182820635,12661586,110
1767761234,5974.314610163371,12661664,110
1767761234,5967.775583267212,12661729,110
1767761234,5961.092313130696,12661808,110
1767761234,5958.880583445231,12661882,110
1767761234,5962.96747525533,12661959,110
1767761234,5971.718231836955,12662031,110
1767761234,5983.546177546184,12662102,110
1767761234,5996.768474578857,12662172,110
1767761234,6023.4534740448,12662453,110
1767761234,6030.32906850179,12662519,110
1767761234,6038.983662923177,12662585,110
1767761234,6044.4168249766035,12662654,110
1767761234,6041.29155476888,12662720,110
1767761234,6028.982798258464,12662785,110
1767761234,6011.721690495809,12662852,110
1767761234,5994.2201773325605,12662912,110
1767761234,5981.045961380005,12662982,110
1767761234,5974.555015563965,12663039,110
1767761234,5975.0839074452715,12663102,110
1767761234,5979.3150424957275,12663170,110
1767761234,5979.411204655965,12663234,110
1767761234,5968.064069747925,12663299,110
1767761234,5943.831205368042,12663357,110
1767761234,5914.261341094971,12663419,110
1767761234,5892.095963160197,12663483,110
1767761234,5885.124206542969,12663550,110
1767761234,5893.105665842692,12663610,110
1767761234,5906.135638554891,12663665,110
1767761234,5910.751422246297,12663726,110
1767761234,5895.269314448039,12663794,110
1767761234,5855.073531468709,12663854,110
1767761234,5799.587965011597,12663914,110
1767761234,5753.093560536702,12663973,110
1767761234,5748.429695765178,12664034,110
1767761234,5813.002586364746,12664092,110
1767761234,6492.965221405029,12664323,110
1767761234,6560.951868693034,12664385,110
1767761234,6524.842977523804,12664443,109
1767761234,6396.37033144633,12664499,109
1767761234,6214.1430377960205,12664557,109
1767761234,6031.819581985474,12664608,109
1767761234,5897.62528737386,12664668,109
1767761234,5835.264126459758,12664719,109
1767761234,5839.447180430095,12664780,109
1767761234,5882.095098495483,12664828,109
1767761234,5928.781827290853,12664878,109
1767761234,5952.389637629191,12664929,109
1767761234,5940.609773000081,12664979,109
1767761234,5898.923476537068,12665028,109
1767761234,5845.986207326253,12665072,109
1767761234,5805.501937866211,12665120,109
1767761234,5793.914397557576,12665169,109
1767761234,5811.656316121419,12665217,109
1767761234,5879.065990447998,12665301,109
1767761234,5898.202260335286,12665338,109
1767761234,5900.942881902059,12665381,109
1767761234,5891.615152359009,12665425,109
1767761234,5879.065990447998,12665461,109
1767761234,5949.745178222656,12665639,109
1767761234,5968.064069747925,12665672,109
1767761234,5978.3534208933515,12665705,109
1767761234,5989.9890422821045,12665836,109
1767761234,5984.7962856292725,12665865,109
1767761234,5978.113015492757,12665896,109
1767761234,5971.814393997192,12665929,109
1767761234,5968.881448109944,12665961,109
1767761234,5972.631772359212,12666000,109
1767761234,5987.488826115926,12666026,109
1767761234,6015.520095825195,12666062,109
1767761234,6052.446365356445,12666099,109
1767761234,6089.7572835286455,12666133,109
1767761234,6118.702093760173,12666172,109
1767761234,6135.722796122233,12666204,109
1767761234,6142.021417617798,12666245,109
1767761234,6139.857769012451,12666285,109
1767761234,6132.020552953084,12666327,109
1767761234,6121.25039100647,12666372,109
1767761234,6102.114121119182,12666611,109
1767761234,6097.354094187419,12666665,109
1767761234,6091.824769973755,12666723,109
1767761234,6036.964257558187,12666962,109
1767761234,6016.722122828166,12667027,109
1767761234,5997.970501581828,12667097,109
1767761234,5980.517069498698,12667164,109
1767761234,5963.111718495687,12667236,109
1767761234,5946.187178293864,12667307,109
1767761234,5931.570529937744,12667383,109
1767761234,5918.925205866496,12667464,109
1767761234,5907.914638519287,12667538,109
1767761234,5899.019638697307,12667616,109
1767761234,5895.653963088989,12667694,109
1767761234,5901.2313683827715,12667780,109
1767761234,5914.165178934733,12667856,109
1767761234,5929.262638092041,12667942,109
1767761234,5939.936637878418,12668025,109
1767761234,5943.302313486735,12668111,109
1767761234,5938.25380007426,12668531,109
1767761234,5954.986015955607,12668617,109
1767761234,5974.843502044678,12668698,109
1767761234,5959.024826685588,12669044,109
1767761234,5940.513610839844,12669126,109
1767761234,5928.685665130615,12669210,109
1767761234,5925.993124643962,12669292,109
1767761234,5931.907097498576,12669371,109
1767761234,5942.340691884358,12669455,109
1767761234,5949.1682052612305,12669532,109
1767761234,5945.225556691487,12669615,109
1767761234,5928.926070531209,12669694,109
1767761234,5907.529989878337,12669773,109
1767761234,5893.20182800293,12669848,109
1767761234,5895.028909047444,12669926,109
1767761234,5915.126800537109,12669999,109
1767761234,5948.014259338379,12670078,109
1767761234,5984.89244778951,12670153,109
1767761235,6016.385555267334,12670225,109
1767761235,6033.7428251902265,12670302,109
1767761235,6034.175554911296,12670374,109
1767761235,6022.588014602661,12670445,109
1767761235,6010.952393213908,12670517,109
1767761235,6085.189580917358,12670793,109
1767761235,6098.219553629558,12670863,109
1767761235,6092.113256454468,12670930,109
1767761235,6066.822608311971,12670997,109
1767761235,6029.55977121989,12671067,109
1767761235,5991.431474685669,12671129,109
1767761235,5964.169502258301,12671192,109
1767761235,5953.976313273112,12671258,109
1767761235,5955.466826756795,12671324,109
1767761235,5956.380367279053,12671385,109
1767761235,5944.985151290894,12671451,109
1767761235,5919.213692347209,12671507,109
1767761235,5888.009071350098,12671570,109
1767761235,5864.257017771403,12671627,109
1767761235,5858.631531397502,12671692,109
1767761235,5873.584747314453,12671743,109
1767761235,5901.32753054301,12671799,109
1767761235,5925.416151682536,12671853,109
1767761235,5924.550692240397,12671908,109
1767761235,5885.845422744751,12671958,109
1767761235,5814.396937688191,12672009,109
1767761235,5737.851858139038,12672056,109
1767761235,5697.5118319193525,12672104,109
1767761235,5728.476047515869,12672146,109
1767761235,5845.31307220459,12672192,109
1767761235,6033.0696900685625,12672229,109
1767761235,6251.4058748881025,12672269,109
1767761235,6445.653438568115,12672303,109
1767761235,6562.586625417073,12672332,109
1767761235,6569.702625274658,12672366,109
1767761235,6468.011140823364,12672399,109
1767761235,6292.803684870402,12672420,109
1767761235,6099.421580632527,12672441,109
1767761235,5939.551989237468,12672460,109
1767761235,5845.120747884114,12672478,109
1767761235,5820.214748382568,12672492,109
1767761235,5846.034288406372,12672506,109
1767761235,5891.422828038533,12672511,109
1767761235,5923.733313878377,12672517,109
1767761235,5922.338962554932,12672516,109
1767761235,5827.571153640747,12672510,109
1767761235,5773.9607493082685,12672502,109
1767761235,5742.275317509969,12672493,109
1767761235,5738.861560821533,12672477,109
1767761235,5758.47864151001,12672458,109
1767761235,5849.976936976115,12672380,109
1767761235,5863.199234008789,12672350,109
1767761235,5864.545504252116,12672317,109
1767761235,5860.218207041423,12672281,109
1767761235,5858.4872881571455,12672239,109
1767761235,5907.578070958455,12672055,109
1767761235,5929.791529973348,12672003,109
1767761235,5953.880151112874,12671953,109
1767761235,5976.910988489787,12671893,109
1767761235,5995.326042175293,12671833,109
1767761235,6009.077231089274,12671774,109
1767761235,6021.00133895874,12671714,109
1767761235,6032.492717107137,12671652,109
1767761235,6044.0802574157715,12671589,109
1767761235,6054.802338282268,12671525,109
1767761235,6064.995527267456,12671456,109
1767761235,6075.717608133952,12671391,109
1767761235,6085.910797119141,12671331,109
1767761235,6093.892256418864,12671264,109
1767761235,6099.854310353597,12671201,109
1767761235,6107.5953642527265,12671139,109
1767761235,6199.95911916097,12670896,109
1767761235,6212.075551350911,12670838,109
1767761235,6206.642389297485,12670781,109
1767761235,6180.870930353801,12670727,109
1767761235,6136.588255564372,12670682,109
1767761235,6080.333391825358,12670629,109
1767761235,6023.741960525513,12670583,109
1767761235,5979.074637095134,12670536,109
1767761235,5952.774286270142,12670499,109
1767761235,5944.215854008992,12670453,109
1767761235,5947.100718816121,12670424,109
1767761235,5954.505205154419,12670389,109
1767761235,5965.515772501628,12670287,109
1767761235,5964.313745498657,12670264,109
1767761235,5968.9295291900635,12670247,109
1767761235,5980.2766640981035,12670238,109
1767761235,5994.556744893392,12670225,109
1767761235,6005.134582519531,12670210,109
1767761235,6006.480852762858,12670199,109
1767761235,5997.297366460164,12670190,109
1767761235,5978.786150614421,12670188,109
1767761235,5955.082178115845,12670182,109
1767761235,5920.0310707092285,12670169,109
1767761235,5925.704638163249,12670169,109
1767761235,5950.995286305745,12670169,109
1767761235,5988.979339599609,12670163,109
1767761235,5989.219745000203,12670139,109
1767761235,5948.639313379924,12670129,109
1767761235,5921.810070673625,12670112,109
1767761235,5922.483205795288,12670106,109
1767761235,5953.495502471924,12670086,109
1767761235,6088.026364644368,12670026,109
1767761235,6088.266770044963,12670004,109
1767761235,6054.369608561198,12669971,109
1767761235,5994.027853012085,12669946,109
1767761235,5922.146638234456,12669912,109
1767761235,5857.573747634888,12669872,109
1767761235,5817.089478174846,12669837,109
1767761235,5808.00215403239,12669800,109
1767761235,5826.0806401570635,12669756,109
1767761235,5858.727693557739,12669719,109
1767761235,5891.999800999959,12669666,109
1767761235,5916.665395100911,12669617,109
1767761235,5928.108692169189,12669575,109
1767761235,5926.954746246338,12669523,109
1767761235,5918.011665344238,12669472,109
1767761235,5910.414854685466,12669424,109
1767761235,5915.319124857585,12669369,109
1767761235,5939.4558270772295,12669321,109
1767761235,5982.536474863688,12669272,109
1767761235,6036.82001431783,12669226,109
1767761235,6091.440121332805,12669177,109
1767761235,6163.6098225911455,12669047,109
1767761235,6140.867471694946,12669008,109
1767761235,6101.248661677043,12668977,109
1767761235,6057.783365249634,12668946,109
1767761235,6021.193663279216,12668921,109
1767761235,5996.431907018025,12668897,109
1767761235,5981.334447860718,12668881,109
1767761235,5970.997015635173,12668864,109
1767761235,5962.630907694499,12668856,109
1767761235,5955.6591510772705,12668852,109
1767761235,5951.812664667766,12668856,109
1767761235,5953.832070032756,12668867,109
1767761235,5964.025259017944,12668881,109
1767761235,5981.382528940837,12668897,109
1767761235,5997.682015101115,12668923,109
1767761235,6000.374555587769,12668953,109
1767761235,5979.507366816203,12668992,109
1767761235,5937.388340632121,12669037,109
1767761235,5893.346071243286,12669084,109
1767761235,5875.940720240275,12669139,109
1767761235,5912.5785032908125,12669196,109
1767761235,6015.856663386027,12669262,109
1767761235,6175.966660181682,12669334,109
1767761235,6359.972953796387,12669406,109
1767761235,6517.246166865031,12669482,109
1767761235,6561.673084894816,12669653,111
1767761235,6415.650844573975,12669741,111
1767761235,6195.295254389445,12669835,111
1767761235,5960.5153401692705,12669925,111
1767761235,5772.422154744466,12670019,111
1767761235,5671.8846162160235,12670123,111
1767761235,5668.374697367351,12670220,111
1767761235,5740.448236465454,12670317,111
1767761235,5843.5821533203125,12670423,111
1767761235,5929.551124572754,12670524,111
1767761235,5964.361826578776,12670621,111
1767761235,5941.186745961507,12670722,111
1767761235,5880.460341771443,12670820,111
1767761235,5769.585371017456,12671115,111
1767761235,5798.193613688151,12671205,111
1767761235,5841.995477676392,12671297,111
1767761235,5878.681341807048,12671382,111
1767761235,5891.855557759603,12671466,111
1767761235,5878.2486120859785,12671545,111
1767761235,5849.015315373738,12671626,111
1767761235,5824.493964513143,12671698,111
1767761235,5821.2244510650635,12671770,111
1767761235,5844.014883041382,12671831,111
1767761235,5884.354909261067,12671898,111
1767761235,5925.896962483724,12671958,111
1767761235,5954.120556513469,12672016,111
1767761235,5960.034529368083,12672068,111
1767761235,5944.119691848755,12672109,111
1767761235,5915.415287017822,12672160,111
1767761235,5888.874530792236,12672200,111
1767761235,5878.825585047404,12672235,111
1767761235,5891.038179397583,12672271,111
1767761235,5921.233097712199,12672300,111
1767761235,5957.72663752238,12672330,111
1767761235,5989.0274206797285,12672356,111
1767761235,6009.461879730225,12672373,111
1767761235,6019.414663314819,12672398,111
1767761235,6024.078528086345,12672414,111
1767761235,6030.088663101196,12672435,111
1767761235,6043.599446614583,12672447,111
1767761235,6067.639986673991,12672456,111
1767761235,6099.517742792766,12672467,111
1767761235,6132.309039433797,12672481,111
1767761235,6158.368984858195,12672489,111
1767761235,6173.99533589681,12672492,111
1767761235,6181.255578994751,12672501,111
1767761235,6183.515389760335,12672513,111
1767761235,6183.274984359741,12672514,111
1767761235,6180.005470911662,12672524,111
1767761235,6171.110471089681,12672528,111
1767761235,6154.08976872762,12672532,111
1767761235,5967.342853546143,12672571,111
1767761235,5950.899124145508,12672585,111
1767761235,5949.793259302775,12672591,111
1767761235,5951.908826828003,12672654,111
1767761235,5936.282475789388,12672672,111
1767761235,5922.531286875407,12672684,111
1767761235,5914.69407081604,12672701,111
1767761235,5912.866989771525,12672716,111
1767761235,5913.395881652832,12672735,111
1767761235,5911.9053681691485,12672758,111
1767761235,5906.520287195842,12672771,111
1767761236,5897.769530614217,12672873,111
1767761236,5901.32753054301,12672897,111
1767761236,5900.942881902059,12672919,111
1767761236,5892.240206400554,12673004,111
1767761236,5913.492043813069,12673031,111
1767761236,5945.12939453125,12673050,111
1767761236,5978.209177652995,12673074,111
1767761236,6002.874771753947,12673092,111
1767761236,6012.202501296997,12673114,111
1767761236,6003.740231196086,12673139,111
1767761236,5981.142123540242,12673157,111
1767761236,5952.630043029785,12673181,111
1767761236,5928.589502970378,12673204,111
1767761236,5917.578935623169,12673231,111
1767761236,5921.906232833862,12673249,111
1767761236,5937.82107035319,12673275,111
1767761236,5958.015124003093,12673293,111
1767761236,5975.708961486816,12673319,111
1767761236,5987.777312596639,12673340,111
1767761236,5993.739366531372,12673365,111
1767761236,5994.941393534343,12673391,111
1767761236,5993.739366531372,12673414,111
1767761236,5992.873907089233,12673439,111
1767761236,5994.797150293986,12673462,111
1767761236,5999.89374478658,12673488,111
1767761236,6007.298231124878,12673513,111
1767761236,6016.2413120269775,12673537,111
1767761236,6026.771068572998,12673560,111
1767761236,6064.995527267456,12673636,111
1767761236,6069.899797439575,12673666,111
1767761236,6065.380175908406,12673693,111
1767761236,6051.628986994426,12673716,111
1767761236,6030.088663101196,12673745,111
1767761236,6002.922852834065,12673776,111
1767761236,5972.968339920044,12673805,111
1767761236,5943.3503945668535,12673825,111
1767761236,5917.482773462932,12673853,111
1767761236,5897.000233332316,12673884,111
1767761236,5882.287422815959,12673911,111
1767761236,5872.959693272908,12673938,111
1767761236,5852.477153142293,12674040,111
1767761236,5829.638640085856,12674063,111
1767761236,5797.568559646606,12674088,111
1767761236,5767.902533213298,12674110,111
1767761236,5758.670965830485,12674136,111
1767761236,5789.010127385457,12674157,111
1767761236,5871.949990590413,12674182,111
1767761236,6007.538636525472,12674201,111
1767761236,6178.370714187622,12674220,111
1767761236,6350.356737772624,12674243,111
1767761236,6481.618086496989,12674261,111
1767761236,6536.238193511963,12674280,111
1767761236,6497.436761856079,12674300,110
1767761236,6374.493439992269,12674313,110
1767761236,6199.093659718831,12674326,110
1767761236,6015.135447184245,12674350,110
1767761236,5864.40126101176,12674366,110
1767761236,5774.681965510051,12674375,110
1767761236,5752.420425415039,12674392,110
1767761236,5782.42301940918,12674405,110
1767761236,5836.418072382609,12674416,110
1767761236,5885.749260584514,12674428,110
1767761236,5912.2419357299805,12674439,110
1767761236,5913.155476252238,12674453,110
1767761236,5896.904071172078,12674460,110
1767761236,5876.517693201701,12674472,110
1767761236,5862.76650428772,12674488,110
1767761236,5860.170125961304,12674497,110
1767761236,5867.286125818889,12674506,110
1767761236,5877.623558044434,12674518,110
1767761236,5884.451071421306,12674524,110
1767761236,5884.931882222493,12674532,110
1767761236,5880.941152572632,12674544,110
1767761236,5877.9120445251465,12674557,110
1767761236,5879.306395848592,12674564,110
1767761236,5884.883801142375,12674577,110
1767761236,5891.470909118652,12674592,110
1767761236,5915.271043777466,12674659,110
1767761236,5932.243665059407,12674669,110
1767761236,5953.63974571228,12674689,110
1767761236,5987.873474756877,12674724,110
1767761236,5992.873907089233,12674740,110
1767761236,5992.777744928996,12674759,110
1767761236,5995.903015136719,12674778,110
1767761236,6009.798447291057,12674794,110
1767761236,6036.964257558187,12674817,110
1767761236,6073.073148727417,12674836,110
1767761236,6108.893553415935,12674864,110
1767761236,6133.895715077718,12674889,110
1767761236,6140.482823053996,12674913,110
1767761236,6127.404769261678,12674936,110
1767761236,6101.681391398112,12674960,110
1767761236,6076.342662175496,12674986,110
1767761236,6065.1397705078125,12675015,110
1767761236,6075.140635172526,12675042,110
1767761236,6103.268067042033,12675072,110
1767761236,6122.7889855702715,12675226,110
1767761236,6077.640851338704,12675255,110
1767761236,6036.098798116048,12675287,110
1767761236,6002.057393391927,12675428,110
1767761236,5994.364420572917,12675464,110
1767761236,5972.679853439331,12675498,110
1767761236,5938.4942054748535,12675537,110
1767761236,5898.87539545695,12675577,110
1767761236,5863.872369130452,12675609,110
1767761236,5842.764774958293,12675647,110
1767761236,5841.370423634847,12675683,110
1767761236,5858.054558436076,12675723,110
1767761236,5885.268449783325,12675766,110
1767761236,5912.338097890218,12675807,110
1767761236,5930.3685029347735,12675840,110
1767761236,5935.224692026774,12675878,110
1767761236,5926.858584086101,12675923,110
1767761236,5909.068584442139,12675961,110
1767761236,5888.009071350098,12675999,110
1767761236,5870.796044667562,12676039,110
1767761236,5863.583882649739,12676084,110
1767761236,5868.44007174174,12676122,110
1767761236,5883.345206578572,12676164,110
1767761236,5947.53344853719,12676285,110
1767761236,5965.611934661865,12676326,110
1767761236,5979.60352897644,12676371,110
1767761236,5989.267826080322,12676409,110
1767761236,5995.42220433553,12676452,110
1767761236,5999.028285344441,12676492,110
1767761236,5999.316771825154,12676536,110
1767761236,5981.142123540242,12676617,110
1767761236,5961.525042851766,12676659,110
1767761236,5939.215421676636,12676704,110
1767761236,5919.886827468872,12676740,110
1767761236,5909.02050336202,12676783,110
1767761236,5910.799503326416,12676825,110
1767761236,5926.185448964437,12676871,110
1767761236,5952.341556549072,12676909,110
1767761236,5981.334447860718,12676952,110
1767761236,6002.730528513591,12676991,110
1767761236,6008.307933807373,12677039,110
1767761236,5996.1434205373125,12677079,110
1767761236,5972.439448038737,12677124,110
1767761236,5948.495070139567,12677167,110
1767761236,5936.811367670695,12677210,110
1767761236,5946.139097213745,12677253,110
1767761236,6118.2693640391035,12677421,110
1767761236,6131.587823232015,12677465,110
1767761236,6116.730769475301,12677513,110
1767761236,6081.150770187378,12677557,110
1767761236,6037.541230519612,12677598,110
1767761236,5949.360529581706,12677736,110
1767761236,5935.8016649882,12677783,110
1767761236,5920.223395029704,12677827,110
1767761236,5898.346503575643,12677872,110
1767761236,5872.09423383077,12677922,110
1767761236,5849.592288335164,12677973,110
1767761236,5840.312639872233,12678020,110
1767761236,5847.620964050293,12678068,110
1767761236,5865.026315053304,12678118,110
1767761236,5878.296693166097,12678169,110
1767761236,5872.959693272908,12678213,110
1767761236,5842.668612798055,12678267,110
1767761236,5794.58753267924,12678319,110
1767761236,5750.256776809692,12678369,110
1767761236,5739.582777023315,12678421,110
1767761236,5789.539019266765,12678470,110
1767761236,5911.424557367961,12678521,110
1767761236,6091.343959172566,12678572,110
1767761236,6291.5535767873125,12678623,110
1767761236,6461.760600407918,12678678,110
1767761236,6556.816895802815,12678722,110
1767761236,6552.681922912598,12678777,110
1767761236,6453.58681678772,12678829,110
1767761236,6289.870738983154,12678882,110
1767761236,6107.114553451538,12678933,110
1767761236,5950.033664703369,12678982,110
1767761236,5847.861369450887,12679034,110
1767761236,5805.405775705974,12679084,110
1767761236,5806.030829747518,12679137,110
1767761236,5822.811126708984,12679181,110
1767761236,5832.811991373698,12679232,110
1767761236,5827.090342839559,12679283,110
1767761236,5811.127424240112,12679331,110
1767761236,5799.636046091716,12679376,110
1767761236,5806.896289189656,12679421,110
1767761236,5839.3510182698565,12679466,110
1767761236,5978.593826293945,12679602,110
1767761236,5980.661312739055,12679646,110
1767761236,5949.98558362325,12679692,110
1767761236,5900.365908940633,12679732,110
1767761236,5851.611693700154,12679773,110
1767761236,5821.512937545776,12679814,110
1767761236,5818.435748418172,12679861,110
1767761236,5839.735666910808,12679898,110
1767761236,5874.498287836711,12679938,110
1767761236,5907.529989878337,12679979,110
1767761236,5927.29131380717,12680015,110
1767761236,5930.272340774536,12680056,110
1767761236,5958.015124003093,12680248,110
1767761236,5984.123150507609,12680291,110
1767761236,6004.701852798462,12680329,110
1767761236,6028.165419896443,12680480,110
1767761236,6046.724716822307,12680522,110
1767761236,6076.102256774902,12680558,110
1767761236,6110.047499338786,12680599,110
1767761236,6139.521201451619,12680639,110
1767761236,6157.647768656413,12680681,110
1767761236,6163.080930709839,12680724,110
1767761236,6158.465147018433,12680763,110
1767761236,6149.041255315145,12680806,110
1767761236,6140.33857981364,12680847,110
1767761236,6135.818958282471,12680890,110
1767761236,6135.915120442708,12680932,110
1767761236,6098.748445510864,12681110,110
1767761237,6071.582635243733,12681155,110
1767761237,6043.551365534465,12681203,110
1767761237,6017.779906590779,12681250,110
1767761237,5994.65290705363,12681290,110
1767761237,5951.956907908122,12681389,110
1767761237,5930.080016454061,12681439,110
1767761237,5907.626152038574,12681487,110
1767761237,5887.09553082784,12681529,110
1767761237,5871.084531148274,12681687,110
1767761237,5879.498720169067,12681731,110
1767761237,5885.508855183919,12681775,110
1767761237,5883.777936299642,12681827,110
1767761237,5873.536666234334,12681878,110
1767761237,5858.198801676433,12681928,110
1767761237,5844.5437749226885,12681975,110
1767761237,5840.264558792114,12682028,110
1767761237,5953.495502471924,12682230,110
1767761237,5978.0168533325195,12682285,110
1767761237,5982.103745142619,12682333,110
1767761237,5965.996583302815,12682384,110
1767761237,5936.522881189982,12682440,110
1767761237,5904.54896291097,12682493,110
1767761237,5881.950855255127,12682547,110
1767761237,5877.479314804077,12682600,110
1767761237,5998.210906982422,12682818,110
1767761237,6014.12574450175,12682875,110
1767761237,6012.058258056641,12682934,110
1767761237,5995.903015136719,12682989,110
1767761237,5973.737637201945,12683054,110
1767761237,5954.745610555013,12683111,110
1767761237,5946.667989095052,12683177,110
1767761237,5952.533880869548,12683233,110
1767761237,5968.881448109944,12683300,110
1767761237,5987.0560963948565,12683367,110
1767761237,5997.4416097005205,12683428,110
1767761237,5994.2201773325605,12683498,110
1767761237,5978.545745213826,12683561,110
1767761237,5957.197745641072,12683625,110
1767761237,5939.936637878418,12683703,110
1767761237,5936.042070388794,12683777,110
1767761237,5950.851043065389,12683847,110
1767761237,5983.161528905232,12683922,110
1767761237,6024.174690246582,12683997,110
1767761237,6060.427824656169,12684068,110
1767761237,6079.85258102417,12684149,110
1767761237,5976.237853368123,12684557,110
1767761237,5969.07377243042,12684644,110
1767761237,5970.083475112915,12684725,110
1767761237,5945.658286412557,12684997,110
1767761237,5919.742584228516,12685089,110
1767761237,5894.884665807088,12685185,110
1767761237,5878.008206685384,12685279,110
1767761237,5870.074828465779,12685378,110
1767761237,5865.362882614136,12685472,110
1767761237,5855.5543422698975,12685572,110
1767761237,5836.1295859018965,12685670,110
1767761237,5810.40620803833,12685777,110
1767761237,5791.31801923116,12685879,110
1767761237,5798.866748809814,12685981,110
1767761237,5852.140585581462,12686086,110
1767761237,5959.74604288737,12686195,110
1767761237,6110.576391220093,12686302,110
1767761237,6407.861709594727,12686524,110
1767761237,6475.030978520711,12686633,110
1767761237,6455.702384312947,12686746,111
1767761237,6355.068683624268,12686858,111
1767761237,5803.91526222229,12687449,111
1767761237,5830.3117752075195,12687567,111
1767761237,5872.286558151245,12687690,111
1767761237,5903.491179148356,12687810,111
1767761237,5910.174449284871,12687932,111
1767761237,5892.624855041504,12688065,111
1767761237,5861.612558364868,12688186,111
1767761237,5831.465721130371,12688312,111
1767761237,5813.483397165935,12688439,111
1767761237,5811.896721522014,12688570,111
1767761237,5822.5226402282715,12688696,111
1767761237,5837.235450744629,12688827,111
1767761237,5849.207639694214,12688959,111
1767761237,5857.141017913818,12689089,111
1767761237,5876.517693201701,12689350,111
1767761237,5892.576773961385,12689484,111
1767761237,5909.501314163208,12689621,111
1767761237,5922.0023949941,12689755,111
1767761237,5926.714340845744,12689891,111
1767761237,5923.973719278972,12690024,111
1767761237,5918.540557225545,12690160,111
1767761237,5918.107827504476,12690298,111
1767761237,5929.69536781311,12690432,111
1767761237,5955.6591510772705,12690571,111
1767761237,5989.700555801392,12690704,111
1767761237,6019.3665822347,12690843,111
1767761237,6031.434933344523,12690979,111
1767761237,6019.751230875651,12691108,111
1767761237,5988.787015279134,12691249,111
1767761237,5951.860745747884,12691389,111
1767761237,5925.945043563843,12691523,111
1767761237,5925.560394922893,12691664,111
1767761237,6016.385555267334,12691937,111
1767761237,6088.74758084615,12692076,111
1767761237,6154.5224984486895,12692217,111
1767761237,6196.785767873128,12692348,111
1767761237,6207.844416300456,12692486,111
1767761237,6191.593011220296,12692627,111
1767761237,6159.330606460571,12692762,111
1767761237,6125.241120656331,12692902,111
1767761237,6100.864013036092,12693039,111
1767761237,6092.738310496013,12693178,111
1767761237,6101.248661677043,12693310,111
1767761237,6120.096445083618,12693454,111
1767761237,6139.857769012451,12693592,111
1767761237,6151.060660680135,12693730,111
1767761237,6148.560444513957,12693867,111
1767761237,6131.828228632609,12694009,111
1767761237,6103.123823801677,12694143,111
1767761237,5913.684368133545,12694844,111
1767761237,5891.951719919841,12694979,111
1767761237,5878.440936406453,12695119,111
1767761237,5886.903206507365,12696094,111
1767761237,5884.931882222493,12696230,111
1767761237,5885.941584904988,12696368,111
1767761237,5892.095963160197,12696512,111
1767761237,5904.645125071208,12696648,111
1767761237,5923.444827397664,12696784,111
1767761237,5945.12939453125,12696923,111
1767761237,5964.025259017944,12697058,111
1767761237,5974.651177724202,12697195,111
1767761237,5974.074204762776,12697334,111
1767761237,5963.736772537231,12697469,111
1767761237,5947.341124216716,12697604,111
1767761237,5929.358800252278,12697735,111
1767761237,5914.069016774495,12697866,111
1767761237,5904.260476430257,12698003,111
1767761237,5901.808341344197,12698131,111
1767761237,5916.857719421387,12698522,111
1767761237,5921.858151753743,12698651,111
1767761237,5928.06061108907,12698778,111
1767761237,5937.00369199117,12698907,111
1767761237,5948.446989059448,12699033,111
1767761237,5960.274934768677,12699154,111
1767761237,5969.8911507924395,12699275,111
1767761237,5975.805123647054,12699392,111
1767761237,5977.439880371094,12699516,111
1767761237,5975.468556086223,12699633,111
1767761237,5972.439448038737,12699750,111
1767761237,5972.391366958618,12699863,111
1767761237,5979.026556015015,12699981,111
1767761237,5992.345015207927,12700092,111
1767761237,6008.356014887492,12700206,111
1767761237,6021.097501118978,12700316,111
1767761237,6025.569041570027,12700422,111
1767761237,6020.953257878621,12700534,111
1767761237,6009.509960810344,12700638,111
1767761237,5995.8549340566,12700742,111
1767761237,5985.613663991292,12700843,111
1767761237,5983.450015385945,12700947,111
1767761237,5991.479555765788,12701049,111
1767761237,6006.480852762858,12701152,111
1767761237,6020.905176798503,12701249,111
1767761237,5925.993124643962,12701727,111
1767761237,5898.827314376831,12701826,111
1767761237,5883.826017379761,12701916,111
1767761237,5880.748828252156,12702188,111
1767761237,5861.0836664835615,12702279,111
1767761237,5822.570721308391,12702372,111
1767761237,5774.778127670288,12702457,111
1767761237,5736.986398696899,12702538,111
1767761237,5732.562939325969,12702634,111
1767761237,5781.172911326091,12702717,111
1767761237,5890.124638875325,12702798,111
1767761237,6049.080689748128,12702894,111
1767761237,6228.3750375111895,12702974,111
1767761237,6385.984818140666,12703064,111
1767761237,6481.281518936157,12703146,111
1767761237,6488.926410675049,12703226,111
1767761237,6408.775250116984,12703315,111
1767761237,6264.48392868042,12703396,111
1767761237,6095.527013142903,12703481,111
1767761237,5807.9540729522705,12703814,111
1767761237,5842.2839641571045,12703899,111
1767761237,5874.738693237305,12703978,111
1767761237,5887.239774068196,12704055,111
1767761237,5878.056287765503,12704137,111
1767761237,5858.006477355957,12704220,111
1767761237,5842.47628847758,12704297,111
1767761237,5842.909018198649,12704375,111
1767761237,5861.13174756368,12704451,111
1767761237,5889.788071314494,12704528,111
1767761237,5914.597908655803,12704607,111
1767761237,5922.146638234456,12704683,111
1767761237,5907.097260157268,12704759,111
1767761237,5875.267585118611,12704830,111
1767761237,5840.84153175354,12704898,111
1767761237,5818.435748418172,12704973,111
1767761237,5815.983613332112,12705045,111
1767761237,5831.6099643707275,12705117,111
1767761237,5856.612126032512,12705183,111
1767761237,5880.460341771443,12705258,111
1767761237,5895.173152287801,12705321,111
1767761237,5898.6349900563555,12705388,111
1767761237,5895.894368489583,12705454,111
1767761237,6007.4905554453535,12705763,111
1767761237,6035.185257593791,12705830,111
1767761238,6050.426959991455,12705886,111
1767761238,6054.610013961792,12705939,111
1767761238,6053.1675815582275,12706000,111
1767761238,6052.8310139973955,12706056,111
1767761238,6058.841149012248,12706108,111
1767761238,6073.553959528605,12706167,111
1767761238,6093.844175338745,12706212,111
1767761238,6125.914255777995,12706326,111
1767761238,6128.414471944173,12706371,111
1767761238,6123.26979637146,12706427,111
1767761238,6107.499202092488,12706532,111
1767761238,6103.652715682983,12706580,111
1767761238,6103.79695892334,12706628,111
1767761238,6106.9222291310625,12706680,111
1767761238,6109.855175018311,12706727,111
1767761238,6107.980012893677,12706778,111
1767761238,6097.546418507894,12706832,111
1767761238,6077.01579729716,12706882,111
1767761238,6048.215230305989,12706932,111
1767761238,6013.741095860799,12706983,111
1767761238,5976.526339848836,12707036,111
1767761238,5939.7923946380615,12707093,111
1767761238,5907.241503397624,12707140,111
1767761238,5883.152882258098,12707190,111
1767761238,5870.219071706136,12707246,111
1767761238,5867.959260940552,12707301,111
1767761238,5873.632828394572,12707351,111
1767761238,5884.114503860474,12707407,111
1767761238,5896.519422531128,12707463,111
1767761238,5908.491611480713,12707516,111
1767761238,5917.675097783406,12707577,111
1767761238,5922.9640165964765,12707630,111
1767761238,5925.27190844218,12707685,111
1767761238,5927.002827326457,12707740,111
1767761238,5934.070746103923,12707914,111
1767761238,5932.9648812611895,12707971,111
1767761238,5929.7434488932295,12708029,111
1767761238,5924.983421961467,12708087,111
1767761238,5918.925205866496,12708153,111
1767761238,5911.9053681691485,12708209,111
1767761238,5904.645125071208,12708265,111
1767761238,5898.683071136475,12708328,111
1767761238,5895.0769901275635,12708391,111
1767761238,5893.634557723999,12708450,111
1767761238,5894.548098246257,12708502,111
1767761238,5944.263935089111,12708810,111
1767761238,5946.860313415527,12708869,111
1767761238,5940.994421641032,12708929,111
1767761238,5906.664530436198,12709107,111
1767761238,5909.693638483684,12709163,111
1767761238,5928.49334081014,12709224,111
1767761238,5960.8519077301025,12709281,111
1767761238,5998.162825902303,12709339,111
1767761238,6029.12704149882,12709400,111
1767761238,6039.897203445435,12709516,111
1767761238,6020.7609335581465,12709569,111
1767761238,5995.470285415649,12709623,111
1767761238,5966.525475184123,12709738,111
1767761238,5974.891583124797,12709796,111
1767761238,5995.470285415649,12709850,111
1767761238,6018.260717391968,12709910,111
1767761238,6032.733122507731,12709964,111
1767761238,6033.502419789632,12710017,111
1767761238,6023.06882540385,12710079,111
1767761238,6008.740663528442,12710132,111
1767761238,5997.970501581828,12710189,111
1767761238,5994.364420572917,12710241,111
1767761238,5995.662609736125,12710302,111
1767761238,5995.085636774699,12710351,111
1767761238,5915.319124857585,12710525,111
1767761238,5870.507558186849,12710581,111
1767761238,5837.860504786174,12710640,111
1767761238,5828.869342803955,12710696,111
1767761238,5843.966801961263,12710759,111
1767761238,5871.084531148274,12710811,111
1767761238,5890.893936157227,12710868,111
1767761238,5886.27815246582,12710928,111
1767761238,5850.601991017659,12710984,111
1767761238,5793.241262435913,12711046,111
1767761238,5739.486614863078,12711102,111
1767761238,5722.225507100423,12711162,111
1767761238,5769.537289937337,12711222,111
1767761238,5890.076557795207,12711283,111
1767761238,6065.764824549357,12711348,111
1767761238,6256.550550460815,12711404,111
1767761238,6413.150628407796,12711468,111
1767761238,6494.6480592091875,12711524,111
1767761238,6481.233437856038,12711584,110
1767761238,6380.503575007121,12711649,110
1767761238,6224.384307861328,12711714,110
1767761238,6057.975689570109,12711769,110
1767761238,5924.166043599446,12711830,110
1767761238,5848.678747812907,12711895,110
1767761238,5833.148558934529,12711959,110
1767761238,5859.208504358928,12712018,110
1767761238,5898.87539545695,12712075,110
1767761238,5928.012530008952,12712141,110
1767761238,5933.109124501546,12712198,110
1767761238,5914.020935694377,12712261,110
1767761238,5850.217342376709,12712378,110
1767761238,5832.908153533936,12712440,110
1767761238,5832.956234614055,12712505,110
1767761238,5844.688018163045,12712559,110
1767761238,5857.573747634888,12712624,110
1767761238,5862.718423207601,12712685,110
1767761238,5857.766071955363,12712740,110
1767761238,5846.322774887085,12712797,110
1767761238,5835.16796429952,12712855,110
1767761238,5831.177234649658,12712917,110
1767761238,5838.533639907837,12712972,110
1767761238,5857.717990875244,12713029,110
1767761238,5884.210666020711,12713083,110
1767761238,5941.282908121745,12713251,110
1767761238,5945.081313451131,12713298,110
1767761238,5946.523745854695,12713350,110
1767761238,5949.1682052612305,12713408,110
1767761238,5954.745610555013,12713463,110
1767761238,5963.207880655925,12713516,110
1767761238,5974.170366923015,12713568,110
1767761238,5986.0944747924805,12713617,110
1767761238,5997.05696105957,12713676,110
1767761238,6024.847825368245,12713825,110
1767761238,6038.358608881633,12713875,110
1767761238,6054.561932881673,12713928,110
1767761238,6071.534554163615,12713975,110
1767761238,6087.545553843181,12714025,110
1767761238,6102.787256240845,12714072,110
1767761238,6117.5962289174395,12714124,110
1767761238,6131.876309712728,12714173,110
1767761238,6144.954363505046,12714222,110
1767761238,6155.72452545166,12714277,110
1767761238,6162.792444229126,12714326,110
1767761238,6163.705984751384,12714374,110
1767761238,6154.907147089641,12714427,110
1767761238,6133.895715077718,12714476,110
1767761238,6101.489067077637,12714526,110
1767761238,6062.495311101277,12714575,110
1767761238,6023.0207443237305,12714630,110
1767761238,5988.258123397827,12714681,110
1767761238,5961.476961771647,12714729,110
1767761238,5943.254232406616,12714782,110
1767761238,5933.157205581665,12714827,110
1767761238,5928.301016489665,12714882,110
1767761238,5924.598773320516,12714932,110
1767761238,5918.78096262614,12714986,110
1767761238,5910.174449284871,12715038,110
1767761238,5901.32753054301,12715086,110
1767761238,5894.019206364949,12715345,110
1767761238,5895.365476608276,12715401,110
1767761238,5895.798206329346,12715452,110
1767761238,5896.3751792907715,12715557,110
1767761238,5900.750557581584,12715611,110
1767761238,5909.9821249643965,12715658,110
1767761238,5922.531286875407,12715716,110
1767761238,5935.128529866536,12715769,110
1767761238,5944.792826970418,12715817,110
1767761238,5949.98558362325,12715868,110
1767761238,5950.322151184082,12715921,110
1767761238,5945.706367492676,12715974,110
1767761238,5936.955610911052,12716027,110
1767761238,5926.137367884318,12716077,110
1767761238,5916.809638341268,12716123,110
1767761238,5911.424557367961,12716178,110
1767761238,5910.511016845703,12716227,110
1767761238,5913.5401248931885,12716276,110
1767761238,5919.357935587565,12716324,110
1767761238,5927.820205688477,12716376,110
1767761238,5937.724908192952,12716425,110
1767761238,5946.571826934814,12716477,110
1767761238,5951.716502507527,12716524,110
1767761238,5941.811800003052,12716672,110
1767761238,5935.8978271484375,12716720,110
1767761238,5931.6666920979815,12716767,110
1767761238,5930.7050704956055,12716815,110
1767761238,5934.647719065349,12716862,110
1767761238,5943.061908086141,12716914,110
1767761238,5953.351259231567,12716960,110
1767761238,5962.342421213786,12717009,110
1767761238,5968.304475148519,12717055,110
1767761238,5972.920258839925,12717105,110
1767761238,5979.074637095134,12717151,110
1767761238,5989.075501759847,12717203,110
1767761238,6003.98063659668,12717257,110
1767761238,6022.780338923137,12717296,110
1767761238,6043.022473653157,12717349,110
1767761238,6059.9470138549805,12717401,110
1767761238,6067.639986673991,12717452,110
1767761238,6062.254905700684,12717504,110
1767761238,6044.320662816365,12717555,110
1767761238,6019.79931195577,12717602,110
1767761238,5995.8549340566,12717655,110
1767761238,5977.824529012044,12717711,110
1767761238,5917.915503184001,12717984,110
1767761238,5890.220801035563,12718043,110
1767761238,5862.76650428772,12718098,110
1767761238,5840.264558792114,12718215,110
1767761238,5846.611261367798,12718278,110
1767761238,5853.679180145264,12718332,110
1767761238,5850.217342376709,12718394,110
1767761238,5830.840667088826,12718457,110
1767761238,5800.309181213379,12718517,110
1767761238,5773.86458714803,12718579,110
1767761238,5774.153073628743,12718645,110
1767761238,5822.426478068034,12718709,110
1767761238,5929.454962412517,12718778,110
1767761238,6086.1992835998535,12718838,110
1767761238,6262.368361155192,12718908,110
1767761238,6415.121952692668,12718970,110
1767761238,6503.1103293101,12719040,110
1767761238,6501.7640590667725,12719109,108
1767761238,6411.035060882568,12719175,108
1767761238,6255.011955897014,12719237,108
1767761238,6074.659824371338,12719306,108
1767761238,5913.8766924540205,12719377,108
1767761238,5806.463559468587,12719445,108
1767761238,5764.440695444743,12719513,108
1767761238,5776.845614115397,12719575,108
1767761238,5817.474126815796,12719648,108
1767761238,5857.47758547465,12719720,108
1767761238,5877.38315264384,12719785,108
1767761238,5871.613423029582,12719856,108
1767761238,5847.33247756958,12719923,108
1767761238,5818.820397059123,12719994,108
1767761238,5800.5015055338545,12720059,108
1767761238,5801.415046056111,12720122,108
1767761239,5820.935964584351,12720191,108
1767761239,5850.553909937541,12720262,108
1767761239,5879.306395848592,12720329,108
1767761239,5899.596611658732,12720395,108
1767761239,5910.559097925822,12720457,108
1767761239,5915.751854578654,12720522,108
1767761239,5919.357935587565,12720592,108
1767761239,5923.5890706380205,12720660,108
1767761239,5927.916367848714,12720718,108
1767761239,5930.416584014893,12720786,108
1767761239,5928.301016489665,12720847,108
1767761239,5919.742584228516,12720916,108
1767761239,5906.520287195842,12720978,108
1767761239,5893.538395563762,12721037,108
1767761239,5888.105233510335,12721100,108
1767761239,5895.125071207683,12721164,108
1767761239,5914.117097854614,12721230,108
1767761239,6001.52850151062,12721535,108
1767761239,6002.538204193115,12721591,108
1767761239,6006.144285202026,12721657,108
1767761239,6102.883418401082,12721900,108
1767761239,6128.366390864055,12721962,108
1767761239,6143.608093261719,12722022,108
1767761239,6147.694985071818,12722088,108
1767761239,6142.117579778035,12722148,108
1767761239,6130.818525950114,12722211,108
1767761239,6118.8944180806475,12722275,108
1767761239,6111.393769582112,12722337,108
1767761239,6109.855175018311,12722403,108
1767761239,6111.297607421875,12722462,108
1767761239,6110.143661499023,12722530,108
1767761239,6100.671688715617,12722592,108
1767761239,6080.814202626546,12722660,108
1767761239,6051.484743754069,12722728,108
1767761239,6016.14514986674,12722790,108
1767761239,5980.228583017985,12722856,108
1767761239,5949.312448501587,12722923,108
1767761239,5928.252935409546,12722988,108
1767761239,5918.011665344238,12723058,108
1767761239,5914.8383140563965,12723130,108
1767761239,5899.115800857544,12723338,108
1767761239,5888.874530792236,12723407,108
1767761239,5880.893071492513,12723473,108
1767761239,5878.729422887166,12723542,108
1767761239,5883.970260620117,12723612,108
1767761239,5896.230936050415,12723682,108
1767761239,5911.664962768555,12723754,108
1767761239,5923.9256381988525,12723824,108
1767761239,5927.531719207764,12723897,108
1767761239,5920.848449071248,12723962,108
1767761239,5907.529989878337,12724033,108
1767761239,5893.923044204712,12724104,108
1767761239,5885.268449783325,12724175,108
1767761239,5884.210666020711,12724248,108
1767761239,5889.932314554851,12724315,108
1767761239,5900.07742245992,12724383,108
1767761239,5910.559097925822,12724454,108
1767761239,5917.290449142456,12724527,108
1767761239,5918.829043706258,12724589,108
1767761239,5917.050043741862,12724659,108
1767761239,5917.194286982219,12724725,108
1767761239,5923.685232798259,12724794,108
1767761239,5937.244097391765,12724858,108
1767761239,5954.745610555013,12724927,108
1767761239,5970.852772394816,12724993,108
1767761239,5981.286366780599,12725057,108
1767761239,5983.546177546184,12725122,108
1767761239,5977.007150650024,12725188,108
1767761239,5964.025259017944,12725250,108
1767761239,5949.072043100993,12725318,108
1767761239,5937.772989273071,12725376,108
1767761239,5933.205286661784,12725445,108
1767761239,5934.5996379852295,12725502,108
1767761239,5938.590367635091,12725565,108
1767761239,5941.715637842814,12725629,108
1767761239,5943.398475646973,12725689,108
1767761239,5945.081313451131,12725747,108
1767761239,5949.120124181111,12725811,108
1767761239,5958.303610483806,12725874,108
1767761239,5974.506934483846,12725930,108
1767761239,5998.162825902303,12725990,108
1767761239,6026.194095611572,12726053,108
1767761239,6051.965554555257,12726110,108
1767761239,6067.784229914348,12726178,108
1767761239,6068.842013676961,12726232,108
1767761239,6055.379311243693,12726289,108
1767761239,6032.4446360270185,12726352,108
1767761239,6006.528933842977,12726409,108
1767761239,5984.219312667847,12726474,108
1767761239,5969.650745391846,12726528,108
1767761239,5963.688691457112,12726594,108
1767761239,5962.19817797343,12726647,108
1767761239,5958.015124003093,12726711,108
1767761239,5944.937070210774,12726774,108
1767761239,5922.146638234456,12726828,108
1767761239,5896.279017130534,12726896,108
1767761239,5877.38315264384,12726954,108
1767761239,5873.200098673503,12727018,108
1767761239,5884.691476821899,12727080,108
1767761239,5904.212395350139,12727138,108
1767761239,5917.867422103882,12727207,108
1767761239,5910.559097925822,12727266,108
1767761239,5873.392422993978,12727328,108
1767761239,5856.66020711263,12727649,108
1767761239,6033.454338709514,12727714,108
1767761239,6240.202983220418,12727776,108
1767761239,6535.228490829468,12727905,108
1767761239,6538.40184211731,12727970,108
1767761239,6431.66184425354,12728036,109
1767761239,6245.107253392537,12728099,109
1767761239,6032.059987386067,12728163,109
1767761239,5848.630666732788,12728230,109
1767761239,5734.341939290364,12728291,109
1767761239,5701.310237248738,12728355,109
1767761239,5734.678506851196,12728422,109
1767761239,5803.145964940389,12728477,109
1767761239,5872.286558151245,12728548,109
1767761239,5917.050043741862,12728603,109
1767761239,5929.358800252278,12728668,109
1767761239,5916.809638341268,12728733,109
1767761239,5881.037314732869,12728850,109
1767761239,5876.854260762532,12728906,109
1767761239,5878.681341807048,12728966,109
1767761239,5878.15244992574,12729023,109
1767761239,5870.411396026611,12729084,109
1767761239,5859.208504358928,12729306,109
1767761239,5890.413125356038,12729360,109
1767761239,5928.733746210734,12729415,109
1767761239,5960.178772608439,12729472,109
1767761239,5972.295204798381,12729523,109
1767761239,5960.659583409627,12729574,109
1767761239,5931.618611017863,12729623,109
1767761239,5898.298422495524,12729678,109
1767761239,5874.305963516235,12729730,109
1767761239,5868.680477142334,12729775,109
1767761239,5883.008639017741,12729828,109
1767761239,5913.155476252238,12729876,109
1767761239,5950.1298268636065,12729924,109
1767761239,5984.123150507609,12729977,109
1767761239,6008.40409596761,12730021,109
1767761239,6021.626393000285,12730072,109
1767761239,6027.636528015137,12730121,109
1767761239,6031.7715009053545,12730171,109
1767761239,6037.156581878662,12730221,109
1767761239,6044.705311457316,12730266,109
1767761239,6053.984959920247,12730313,109
1767761239,6065.4763380686445,12730365,109
1767761239,6079.804499944051,12730410,109
1767761239,6096.680959065755,12730465,109
1767761239,6115.096012751262,12730509,109
1767761239,6133.078336715698,12730558,109
1767761239,6148.800849914551,12730610,109
1767761239,6159.859498341878,12730663,109
1767761239,6163.03284962972,12730712,109
1767761239,6156.926552454631,12730765,109
1767761239,6142.790714899699,12730816,109
1767761239,6124.712228775024,12730871,109
1767761239,6106.777985890706,12730925,109
1767761239,6089.949607849121,12730975,109
1767761239,6072.400013605754,12731033,109
1767761239,6050.859689712524,12731089,109
1767761239,6023.261149724324,12731144,109
1767761239,5989.36398824056,12731199,109
1767761239,5950.610637664795,12731261,109
1767761239,5849.544207255046,12731431,109
1767761239,5836.946964263916,12731490,109
1767761239,5836.36999130249,12731552,109
1767761239,5843.774477640788,12731612,109
1767761239,5854.929288228353,12731675,109
1767761239,5867.815017700195,12731733,109
1767761239,5881.950855255127,12731796,109
1767761239,5896.807909011841,12731852,109
1767761239,5911.376476287842,12731922,109
1767761239,5924.406449000041,12731979,109
1767761239,5940.032800038655,12732105,109
1767761239,5938.542286554973,12732164,109
1767761239,5929.551124572754,12732235,109
1767761239,5915.415287017822,12732292,109
1767761239,5901.856422424316,12732353,109
1767761239,5894.596179326375,12732418,109
1767761239,5896.279017130534,12732478,109
1767761239,5906.039476394653,12732546,109
1767761239,5919.742584228516,12732602,109
1767761239,5932.868719100952,12732664,109
1767761239,5940.802097320557,12732726,109
1767761239,5940.225124359131,12732786,109
1767761239,5930.656989415486,12732844,109
1767761239,5915.463368097941,12732904,109
1767761239,5901.183287302653,12732960,109
1767761239,5893.730719884236,12733021,109
1767761239,5895.846287409465,12733085,109
1767761239,5906.231800715129,12733138,109
1767761239,5921.377340952556,12733199,109
1767761239,5937.869151433309,12733254,109
1767761239,5952.774286270142,12733308,109
1767761239,5963.736772537231,12733365,109
1767761239,5970.179637273152,12733418,109
1767761239,5973.064502080281,12733473,109
1767761239,5974.987745285034,12733532,109
1767761239,5977.439880371094,12733586,109
1767761239,5979.65161005656,12733638,109
1767761239,5979.843934377034,12733688,109
1767761239,5977.103312810262,12733744,109
1767761239,5973.497231801351,12733792,109
1767761239,5972.776015599568,12733846,109
1767761239,5977.632204691569,12733897,109
1767761239,5989.412069320679,12733949,109
1767761239,6007.105906804402,12734000,109
1767761239,6027.8769334157305,12734052,109
1767761239,6046.9651222229,12734101,109
1767761239,6058.31225713094,12734155,109
1767761239,6057.879527409871,12734204,109
1767761239,6045.33036549886,12734252,109
1767761239,6024.895906448364,12734306,109
1767761239,6002.057393391927,12734353,109
1767761239,5979.940096537272,12734405,109
1767761239,5958.399772644043,12734457,109
1767761239,5935.224692026774,12734508,109
1767761239,5909.308989842732,12734560,109
1767761239,5881.42196337382,12734611,109
1767761239,5855.169693628947,12734665,109
1767761239,5836.273829142253,12734719,109
1767761239,5840.264558792114,12734821,109
1767761240,5860.7470989227295,12734873,109
1767761240,5879.162152608235,12734925,109
1767761240,5880.364179611206,12734976,109
1767761240,5855.265855789185,12735030,109
1767761240,5763.046344121297,12735244,109
1767761240,5858.871936798096,12735298,109
1767761240,6016.770203908284,12735351,109
1767761240,6207.7001730601,12735411,109
1767761240,6385.071277618408,12735459,109
1767761240,6500.706275304158,12735513,109
1767761240,6521.910031636556,12735574,109
1767761240,6444.451411565145,12735621,109
1767761240,6293.28449567159,12735678,109
1767761240,6112.451553344727,12735729,109
1767761240,5950.370232264201,12735787,109
1767761240,5843.053261439006,12735834,109
1767761240,5804.540316263835,12735889,109
1767761240,5823.38809967041,12735940,109
1767761240,5869.834423065186,12735996,109
1767761240,5909.885962804158,12736044,109
1767761240,5919.934908548991,12736094,109
1767761240,5895.461638768514,12736149,109
1767761240,5849.207639694214,12736192,109
1767761240,5802.232424418132,12736246,109
1767761240,5774.104992548625,12736297,109
1767761240,5774.681965510051,12736342,109
1767761240,5802.28050549825,12736388,109
1767761240,5844.5437749226885,12736431,109
1767761240,5884.595314661662,12736484,109
1767761240,5908.828179041545,12736524,109
1767761240,5912.67466545105,12736570,109
1767761240,5901.856422424316,12736613,109
1767761240,5887.239774068196,12736654,109
1767761240,5878.58517964681,12736700,109
1767761240,5880.460341771443,12736744,109
1767761240,5891.663233439128,12736784,109
1767761240,5907.626152038574,12736821,109
1767761240,5922.338962554932,12736864,109
1767761240,5930.7050704956055,12736901,109
1767761240,5930.993556976318,12736941,109
1767761240,5925.512313842773,12736975,109
1767761240,5920.271476109822,12737013,109
1767761240,5920.9926923116045,12737054,109
1767761240,5929.69536781311,12737091,109
1767761240,5945.273637771606,12737127,109
1767761240,5963.929096857707,12737163,109
1767761240,5982.680718104045,12737198,109
1767761240,5998.835961023967,12737242,109
1767761240,6010.135014851888,12737272,109
1767761240,6016.193230946858,12737315,109
1767761240,6047.349770863851,12737463,109
1767761240,6069.947878519694,12737503,109
1767761240,6095.863580703735,12737543,109
1767761240,6121.25039100647,12737583,109
1767761240,6141.781012217204,12737629,109
1767761240,6152.743498484294,12737668,109
1767761240,6151.878039042155,12737708,109
1767761240,6140.098174413045,12737753,109
1767761240,6122.692823410034,12737805,109
