timestamp,Channel 1,Channel 2,Channel 3
1767762156,6105.81636428833,11420329,79
1767762156,6233.519713083903,11420332,79
1767762156,6357.328494389852,11420330,79
1767762156,6441.374222437541,11420326,79
1767762156,6456.279357274373,11420326,79
1767762156,6389.735142389934,11420324,77
1767762156,6251.742442448934,11420317,77
1767762156,6072.5923379262285,11420319,77
1767762156,5893.874963124593,11420317,77
1767762156,5754.968722661336,11420313,77
1767762156,5680.923859278361,11420309,77
1767762156,5676.163832346599,11420309,77
1767762156,5725.831588109334,11420307,77
1767762156,5803.194046020508,11420303,77
1767762156,5880.652666091919,11420295,77
1767762156,5938.590367635091,11420294,77
1767762156,5970.179637273152,11420290,77
1767762156,5980.661312739055,11420287,77
1767762156,5981.815258661906,11420285,77
1767762156,5985.084772109985,11420281,77
1767762156,5995.614528656006,11420279,77
1767762156,6011.144717534383,11420273,77
1767762156,6025.040149688721,11420267,77
1767762156,6030.425230662028,11420265,77
1767762156,6024.847825368245,11420264,77
1767762156,6010.904312133789,11420261,77
1767762156,5995.374123255412,11420254,77
1767762156,5985.902150472005,11420253,77
1767762156,5987.296501795451,11420253,77
1767762156,5999.605258305867,11420247,77
1767762156,6017.924149831136,11420242,77
1767762156,6034.656365712483,11420237,77
1767762156,6043.551365534465,11420234,77
1767762156,6042.060852050781,11420234,77
1767762156,6032.1080684661865,11420232,77
1767762156,6018.693447113037,11420230,77
1767762156,6007.346312204997,11420228,77
1767762156,6002.538204193115,11420222,77
1767762156,6006.00004196167,11420218,77
1767762156,6016.674041748047,11420220,77
1767762156,6031.290690104167,11420218,77
1767762156,6045.955419540405,11420212,77
1767762156,6057.591040929158,11420212,77
1767762156,6064.947446187337,11420211,77
1767762156,6068.457365036011,11420212,77
1767762156,6069.467067718506,11420209,77
1767762156,6069.611310958862,11420211,77
1767762156,6070.621013641357,11420211,77
1767762156,6073.602040608724,11420215,77
1767762156,6078.890959421794,11420212,77
1767762156,6085.2376619974775,11420216,77
1767762156,6090.334256490071,11420220,77
1767762156,6091.728607813518,11420223,77
1767762156,6087.930202484131,11420225,77
1767762156,6079.7083377838135,11420230,77
1767762156,6069.7074731191,11420234,77
1767762156,6061.870257059733,11420240,77
1767762156,6060.523986816406,11420249,77
1767762156,6068.409283955892,11420255,77
1767762156,6084.949175516765,11420263,77
1767762156,6105.672121047974,11420271,77
1767762156,6123.173634211223,11420281,77
1767762156,6130.241552988688,11420291,77
1767762156,6122.548580169678,11420301,77
1767762156,6100.527445475261,11420318,77
1767762156,6069.418986638387,11420329,77
1767762156,6036.964257558187,11420344,77
1767762156,6011.192798614502,11420356,77
1767762156,5997.297366460164,11420371,77
1767762156,5995.999177296956,11420387,77
1767762157,6003.355582555135,11420406,77
1767762157,6013.019879659017,11420426,77
1767762157,6019.126176834106,11420446,77
1767762157,6019.126176834106,11420463,77
1767762157,6013.885339101155,11420485,77
1767762157,6006.8174203236895,11420505,77
1767762157,6001.52850151062,11420527,77
1767762157,6000.182231267293,11420548,77
1767762157,6002.730528513591,11420574,77
1767762157,6006.721258163452,11420599,77
1767762157,6009.077231089274,11420624,77
1767762157,6007.1539878845215,11420649,77
1767762157,6000.182231267293,11420677,77
1767762157,5989.892880121867,11420702,77
1767762157,5979.074637095134,11420738,77
1767762157,5970.179637273152,11420764,77
1767762157,5964.457988739014,11420791,77
1767762157,5962.342421213786,11420822,77
1767762157,5963.832934697469,11420851,77
1767762157,5969.362258911133,11420881,77
1767762157,5979.3150424957275,11420911,77
1767762157,5993.595123291016,11420941,77
1767762157,6011.144717534383,11420975,77
1767762157,6029.223203659058,11421003,77
1767762157,6044.128338495891,11421034,77
1767762157,6051.965554555257,11421066,77
1767762157,6050.619284311931,11421100,77
1767762157,6041.099230448405,11421131,77
1767762157,6027.8769334157305,11421164,77
1767762157,6017.2029336293535,11421194,77
1767762157,6014.318068822225,11421224,77
1767762157,6020.905176798503,11421259,77
1767762157,6034.3678792317705,11421289,77
1767762157,6049.080689748128,11421324,77
1767762157,6058.889230092366,11421352,77
1767762157,6059.514284133911,11421385,77
1767762157,6050.763527552287,11421413,77
1767762157,6036.43536567688,11421448,77
1767762157,6022.347609202067,11421476,77
1767762157,6013.9815012613935,11421506,77
1767762157,6012.779474258423,11421538,77
1767762157,6016.193230946858,11421564,77
1767762157,6019.270420074463,11421598,77
1767762157,6017.731825510661,11421623,77
1767762157,6010.663906733195,11421652,77
1767762157,6000.903447469075,11421682,77
1767762157,5993.835528691609,11421708,77
1767762157,5995.085636774699,11421735,77
1767762157,6007.202068964641,11421762,77
1767762157,6028.2135009765625,11421786,77
1767762157,6051.8213113149,11421810,77
1767762157,6070.044040679932,11421837,77
1767762157,6077.160040537517,11421859,77
1767762157,6072.111527125041,11421884,77
1767762157,6059.177716573079,11421908,77
1767762157,6045.234203338623,11421934,77
1767762157,6036.194960276286,11421955,77
1767762157,6034.512122472127,11421980,77
1767762157,6038.502852121989,11422003,77
1767762157,6043.31096013387,11422022,77
1767762157,6043.359041213989,11422046,77
1767762157,6035.858392715454,11422066,77
1767762157,6022.155284881592,11422088,77
1767762157,6007.730960845947,11422109,77
1767762157,5998.69171778361,11422130,77
1767762157,5998.980204264323,11422149,77
1767762157,6007.875204086304,11422166,77
1767762157,6020.664771397908,11422186,77
1767762157,6030.857960383098,11422205,77
1767762157,6034.031311670939,11422225,77
1767762157,6029.078960418701,11422242,77
1767762157,6019.3665822347,11422261,77
1767762157,6010.808149973552,11422284,77
1767762157,6008.83682568868,11422297,77
1767762157,6015.520095825195,11422315,77
1767762157,6028.021176656087,11422336,77
1767762157,6039.656798044841,11422352,77
1767762157,6043.503284454346,11422374,77
1767762157,6035.6660683949785,11422392,77
1767762157,6017.251014709473,11422407,77
1767762157,5993.787447611491,11422424,77
1767762157,5972.72793451945,11422447,77
1767762157,5960.755745569865,11422467,77
1767762157,5961.092313130696,11422481,77
1767762157,5972.872177759807,11422500,77
1767762157,5992.104609807332,11422521,77
1767762157,6013.500690460205,11422535,77
1767762157,6033.165852228801,11422559,77
1767762157,6049.176851908366,11422576,77
1767762157,6061.2452030181885,11422593,77
1767762157,6069.178581237793,11422615,77
1767762157,6071.2941487630205,11422635,77
1767762157,6065.1397705078125,11422654,77
1767762157,6049.128770828247,11422676,77
1767762157,6024.030447006226,11422695,77
1767762157,5994.075934092204,11422716,77
1767762157,5966.381231943767,11422739,77
1767762157,5948.879718780518,11422754,77
1767762157,5947.918097178142,11422780,77
1767762157,5965.611934661865,11422806,77
1767762157,5998.403231302897,11422826,77
1767762157,6038.310527801514,11422849,77
1767762157,6076.1503378550215,11422871,77
1767762157,6104.806661605835,11422895,77
1767762157,6121.25039100647,11422916,77
1767762157,6126.395066579183,11422940,77
1767762157,6123.26979637146,11422967,77
1767762157,6115.096012751262,11422994,77
1767762157,6103.79695892334,11423017,77
1767762157,6089.613040288289,11423041,77
1767762157,6071.390310923259,11423068,77
1767762157,6048.119068145752,11423093,77
1767762157,6019.943555196126,11423118,77
1767762157,5988.787015279134,11423150,77
1767762157,5958.015124003093,11423176,77
1767762157,5930.849313735962,11423202,77
1767762157,5910.65526008606,11423235,77
1767762157,5900.07742245992,11423259,77
1767762157,5902.289152145386,11423288,77
1767762157,5919.598340988159,11423322,77
1767762157,5952.245394388835,11423350,77
1767762157,5996.383825937907,11423380,77
1767762157,6043.503284454346,11423414,77
1767762157,6081.439256668091,11423442,77
1767762157,6098.652283350627,11423470,77
1767762157,6088.603337605794,11423500,77
1767762157,6054.369608561198,11423528,77
1767762157,6010.904312133789,11423560,77
1767762157,5981.622934341431,11423592,77
1767762157,5990.037123362224,11423620,77
1767762157,6049.561500549316,11423652,77
1767762157,6155.291795730591,11423680,77
1767762157,6282.8028202056885,11423713,77
1767762157,6394.014358520508,11423744,77
1767762157,6449.980735778809,11423773,77
1767762157,6424.209276835124,11423805,75
1767762157,6313.863197962443,11423835,75
1767762157,6141.829093297322,11423865,75
1767762157,5950.033664703369,11423894,75
1767762157,5785.500208536784,11423926,75
1767762157,5684.433778127034,11423952,75
1767762157,5661.2106164296465,11423980,75
1767762157,5705.829858779907,11424011,75
1767762157,5790.644884109497,11424035,75
1767762157,5881.950855255127,11424062,75
1767762157,5951.956907908122,11424085,75
1767762157,5987.104177474976,11424109,75
1767762157,5989.508231480916,11424136,75
1767762157,5972.247123718262,11424157,75
1767762157,5951.4280160268145,11424178,75
1767762157,5938.4942054748535,11424198,75
1767762157,5937.00369199117,11424217,75
1767762157,5943.542718887329,11424237,75
1767762157,5952.293475468953,11424250,75
1767762157,5959.169069925944,11424267,75
1767762157,5964.21758333842,11424281,75
1767762157,5970.948934555054,11424297,75
1767762157,5983.498096466064,11424308,75
1767762157,6004.413366317749,11424316,75
1767762157,6032.059987386067,11424327,75
1767762157,6061.004797617595,11424333,75
1767762157,6084.035634994507,11424340,75
1767762157,6095.334688822429,11424344,75
1767762157,6093.363364537557,11424345,75
1767762157,6080.766121546428,11424347,75
1767762157,6063.120365142822,11424350,75
1767762157,6046.3400681813555,11424348,75
1767762157,6034.656365712483,11424342,75
1767762157,6029.800176620483,11424340,75
1767762157,6030.8098793029785,11424334,75
1767762157,6034.944852193196,11424325,75
1767762157,6039.031744003296,11424319,75
1767762157,6040.858825047811,11424309,75
1767762157,6039.993365605672,11424294,75
1767762157,6037.637392679851,11424286,75
1767762157,6035.762230555217,11424271,75
1767762157,6036.483446756999,11424258,75
1767762157,6041.195392608643,11424241,75
1767762157,6050.667365392049,11424226,75
1767762157,6064.370473225911,11424205,75
1767762157,6080.621878306071,11424189,75
1767762157,6096.344391504924,11424167,75
1767762157,6108.797391255696,11424147,75
1767762157,6116.105715433757,11424126,75
1767762157,6118.221282958984,11424105,75
1767762157,6116.490364074707,11424085,75
1767762157,6112.836201985677,11424060,75
1767762157,6108.941634496053,11424038,75
1767762157,6105.383634567261,11424016,75
1767762157,6101.7294724782305,11423990,75
1767762157,6095.9116617838545,11423971,75
1767762157,6085.910797119141,11423947,75
1767762157,6070.90950012207,11423921,75
1767762157,6052.2059599558515,11423899,75
1767762157,6033.262014389038,11423875,75
1767762157,6017.924149831136,11423849,75
1767762157,6008.884906768799,11423830,75
1767762157,6006.8174203236895,11423804,75
1767762157,6010.183095932007,11423784,75
1767762157,6016.048987706502,11423762,75
1767762157,6021.530230840047,11423741,75
1767762157,6024.174690246582,11423716,75
1767762157,6024.078528086345,11423699,75
1767762157,6022.6841767628985,11423675,75
1767762157,6022.011041641235,11423660,75
1767762157,6022.876501083374,11423636,75
1767762157,6024.3189334869385,11423615,75
1767762157,6023.83812268575,11423595,75
1767762157,6018.933852513631,11423577,75
1767762157,6008.932987848918,11423560,75
1767762157,5995.03755569458,11423548,75
1767762157,5980.228583017985,11423527,75
1767762157,5968.160231908162,11423513,75
1767762157,5961.76544825236,11423497,75
1767762157,5961.861610412598,11423479,75
1767762157,5966.573556264241,11423469,75
1767762157,5972.247123718262,11423448,75
1767762157,5975.468556086223,11423435,75
1767762157,5974.843502044678,11423421,75
1767762157,5972.199042638143,11423398,75
1767762157,5971.5259075164795,11423391,75
1767762157,5977.007150650024,11423374,75
1767762157,5990.9506638844805,11423358,75
1767762157,6012.971798578898,11423346,75
1767762157,6039.175987243652,11423330,75
1767762157,6063.264608383179,11423314,75
1767762157,6079.179445902507,11423302,75
1767762157,6082.737445831299,11423285,75
1767762157,6073.842446009318,11423269,75
1767762157,6056.437095006307,11423255,75
1767762157,6036.483446756999,11423237,75
1767762157,6019.703149795532,11423224,75
1767762157,6009.894609451294,11423208,75
1767762157,6007.63479868571,11423189,75
1767762157,6011.337041854858,11423173,75
1767762157,6017.491420110066,11423152,75
1767762157,6022.780338923137,11423136,75
1767762157,6025.6171226501465,11423115,75
1767762157,6026.386419932048,11423095,75
1767762157,6027.011473973592,11423076,75
1767762157,6029.5116901397705,11423056,75
1767762157,6034.319798151652,11423037,75
1767762157,6040.5222574869795,11423011,75
1767762157,6046.243906021118,11422989,75
1767762157,6049.465338389079,11422964,75
1767762157,6049.2730140686035,11422943,75
1767762157,6046.003500620524,11422917,75
1767762157,6041.29155476888,11422895,75
1767762157,6037.396987279256,11422866,75
1767762157,6036.146879196167,11422845,75
1767762157,6037.685473759969,11422817,75
1767762157,6040.329933166504,11422791,75
1767762158,6041.772365570068,11422762,75
1767762158,6040.08952776591,11422736,75
1767762158,6035.041014353435,11422706,75
1767762158,6028.021176656087,11422676,75
1767762158,6021.193663279216,11422650,75
1767762158,6016.57787958781,11422619,75
1767762158,6015.135447184245,11422588,75
1767762158,6016.289393107097,11422560,75
1767762158,6017.876068751018,11422525,75
1767762158,6016.866366068522,11422496,75
1767762158,6011.865933736165,11422465,75
1767762158,6003.644069035848,11422434,75
1767762158,5995.903015136719,11422400,75
1767762158,5993.210474650065,11422371,75
1767762158,5999.12444750468,11422342,75
1767762158,6014.5103931427,11422303,75
1767762158,6036.483446756999,11422276,75
1767762158,6059.225797653198,11422245,75
1767762158,6075.092554092407,11422210,75
1767762158,6077.977418899536,11422181,75
1767762158,6065.572500228882,11422151,75
1767762158,6041.099230448405,11422119,75
1767762158,6012.0101769765215,11422088,75
1767762158,5987.825393676758,11422055,75
1767762158,5975.7570425669355,11422025,75
1767762158,5978.497664133708,11421994,75
1767762158,5993.258555730184,11421965,75
1767762158,6012.87563641866,11421935,75
1767762158,6028.5500685373945,11421907,75
1767762158,6033.165852228801,11421876,75
1767762158,6024.367014567058,11421848,75
1767762158,6005.5192311604815,11421820,75
1767762158,5984.555880228679,11421794,75
1767762158,5970.323880513509,11421763,75
1767762158,5968.9295291900635,11421735,75
1767762158,5981.815258661906,11421705,75
1767762158,6005.471150080363,11421681,75
1767762158,6033.213933308919,11421655,75
1767762158,6057.639122009277,11421632,75
1767762158,6073.313554128011,11421610,75
1767762158,6078.21782430013,11421582,75
1767762158,6074.419418970744,11421557,75
1767762158,6066.341797510783,11421533,75
1767762158,6058.456500371297,11421514,75
1767762158,6053.45606803894,11421492,75
1767762158,6051.628986994426,11421467,75
1767762158,6051.5328248341875,11421447,75
1767762158,6051.244338353475,11421424,75
1767762158,6049.176851908366,11421405,75
1767762158,6044.56106821696,11421383,75
1767762158,6037.637392679851,11421365,75
1767762158,6030.088663101196,11421345,75
1767762158,6024.126609166463,11421326,75
1767762158,6021.81871732076,11421305,75
1767762158,6024.463176727295,11421291,75
1767762158,6031.57917658488,11421274,75
1767762158,6041.868527730306,11421260,75
1767762158,6052.25404103597,11421236,75
1767762158,6058.6488246917725,11421220,75
1767762158,6056.869824727376,11421211,75
1767762158,6044.512987136841,11421190,75
1767762158,6022.732257843018,11421173,75
1767762158,5996.4799880981445,11421161,75
1767762158,5973.208745320638,11421144,75
1767762158,5959.409475326538,11421130,75
1767762158,5958.303610483806,11421113,75
1767762158,5967.342853546143,11421100,75
1767762158,5979.363123575847,11421089,75
1767762158,5985.180934270223,11421071,75
1767762158,5978.834231694539,11421056,75
1767762158,5962.005853652954,11421043,75
1767762158,5946.331421534221,11421030,75
1767762158,5950.1298268636065,11421019,75
1767762158,5991.2872314453125,11421005,75
1767762158,6078.025499979655,11420995,75
1767762158,6202.507416407268,11420977,75
1767762158,6339.8269812266035,11420967,75
1767762158,6453.682978947957,11420950,75
1767762158,6507.629950841268,11420943,75
1767762158,6477.09846496582,11420930,77
1767762158,6359.540224075317,11420915,77
1767762158,6177.457173665364,11420903,77
1767762158,5971.47782643636,11420893,77
1767762158,5787.904262542725,11420879,77
1767762158,5664.239724477132,11420870,77
1767762158,5617.7934010823565,11420856,77
1767762158,5643.035968144734,11420846,77
1767762158,5715.878804524739,11420833,77
1767762158,5803.91526222229,11420822,77
1767762158,5878.489017486572,11420807,77
1767762158,5923.492908477783,11420798,77
1767762158,5938.878854115804,11420787,77
1767762158,5937.00369199117,11420772,77
1767762158,5934.647719065349,11420762,77
1767762158,5945.081313451131,11420751,77
1767762158,5972.631772359212,11420743,77
1767762158,6012.202501296997,11420727,77
1767762158,6052.975257237752,11420720,77
1767762158,6083.6029052734375,11420709,77
1767762158,6096.729040145874,11420695,77
1767762158,6091.824769973755,11420685,77
1767762158,6074.707905451457,11420678,77
1767762158,6054.27344640096,11420663,77
1767762158,6038.599014282227,11420656,77
1767762158,6031.194527943929,11420642,77
1767762158,6030.8098793029785,11420633,77
1767762158,6032.588879267375,11420621,77
1767762158,6030.906041463216,11420612,77
1767762158,6022.203365961711,11420601,77
1767762158,6006.096204121907,11420592,77
1767762158,5986.1425558726,11420584,77
1767762158,5968.977610270183,11420573,77
1767762158,5961.525042851766,11420565,77
1767762158,5968.641042709351,11420557,77
1767762158,5990.806420644124,11420548,77
1767762158,6023.934284845988,11420539,77
1767762158,6060.37974357605,11420528,77
1767762158,6091.728607813518,11420522,77
1767762158,6110.768715540568,11420510,77
1767762158,6113.94206682841,11420506,77
1767762158,6102.498769760132,11420496,77
1767762158,6082.3047161102295,11420490,77
1767762158,6061.774094899495,11420486,77
1767762158,6048.792203267415,11420480,77
1767762158,6047.9748249053955,11420475,77
1767762158,6059.129635492961,11420467,77
1767762158,6077.83317565918,11420461,77
1767762158,6097.738742828369,11420457,77
1767762158,6112.643877665202,11420455,77
1767762158,6118.750174840291,11420448,77
1767762158,6115.865310033162,11420442,77
1767762158,6107.45112101237,11420442,77
1767762158,6098.459959030151,11420440,77
1767762158,6093.074878056844,11420436,77
1767762158,6092.83447265625,11420433,77
1767762158,6095.9116617838545,11420431,77
1767762158,6098.796526590983,11420429,77
1767762158,6097.931067148845,11420428,77
1767762158,6091.295878092448,11420430,77
1767762158,6079.131364822388,11420429,77
1767762158,6063.697338104248,11420428,77
1767762158,6048.263311386108,11420428,77
1767762158,6035.810311635335,11420433,77
1767762158,6027.2518793741865,11420431,77
1767762158,6021.289825439453,11420434,77
1767762158,6015.32777150472,11420439,77
1767762158,6007.1539878845215,11420437,77
1767762158,5996.287663777669,11420441,77
1767762158,5984.45971806844,11420447,77
1767762158,5974.506934483846,11420448,77
1767762158,5969.794988632202,11420453,77
1767762158,5972.343285878499,11420460,77
1767762158,5982.728799184163,11420462,77
1767762158,5998.595555623372,11420469,77
1767762158,6015.616257985433,11420475,77
1767762158,6028.453906377156,11420479,77
1767762158,6032.973527908325,11420484,77
1767762158,6027.540365854899,11420487,77
1767762158,6013.548771540324,11420494,77
1767762158,5995.229880015056,11420502,77
1767762158,5977.9687722524,11420507,77
1767762158,5967.342853546143,11420509,77
1767762158,5967.05436706543,11420516,77
1767762158,5977.487961451213,11420523,77
1767762158,5994.8452313741045,11420529,77
1767762158,6012.731393178304,11420535,77
1767762158,6024.607419967651,11420542,77
1767762158,6026.386419932048,11420544,77
1767762158,6018.356879552205,11420548,77
1767762158,6004.990339279175,11420557,77
1767762158,5993.5470422108965,11420564,77
1767762158,5991.191069285075,11420566,77
1767762158,6001.816987991333,11420568,77
1767762158,6023.741960525513,11420576,77
1767762158,6049.561500549316,11420575,77
1767762158,6068.89009475708,11420583,77
1767762158,6073.265473047893,11420585,77
1767762158,6059.850851694743,11420585,77
1767762158,6033.117771148682,11420588,77
1767762158,6003.115177154541,11420593,77
1767762158,5981.574853261312,11420595,77
1767762158,5977.391799290975,11420594,77
1767762158,5992.441177368164,11420595,77
1767762158,6020.61669031779,11420594,77
1767762158,6050.426959991455,11420594,77
1767762158,6069.803635279338,11420594,77
1767762158,6071.774959564209,11420597,77
1767762158,6057.54295984904,11420591,77
1767762158,6035.714149475098,11420591,77
1767762158,6017.972230911255,11420586,77
1767762158,6013.741095860799,11420590,77
1767762158,6026.097933451335,11420584,77
1767762158,6050.042311350505,11420578,77
1767762158,6074.755986531575,11420577,77
1767762158,6088.122526804606,11420572,77
1767762158,6081.920067469279,11420564,77
1767762158,6056.004365285237,11420563,77
1767762158,6018.260717391968,11420556,77
1767762158,5980.949799219768,11420549,77
1767762158,5955.851475397746,11420541,77
1767762158,5949.312448501587,11420538,77
1767762158,5960.755745569865,11420532,77
1767762158,5983.594258626302,11420523,77
1767762158,6008.548339207967,11420517,77
1767762158,6027.203798294067,11420506,77
1767762158,6035.281419754028,11420503,77
1767762158,6033.838987350464,11420497,77
1767762158,6027.540365854899,11420487,77
1767762158,6022.155284881592,11420478,77
1767762158,6020.905176798503,11420468,77
1767762158,6024.078528086345,11420462,77
1767762158,6029.030879338582,11420455,77
1767762158,6032.204230626424,11420446,77
1767762158,6031.290690104167,11420439,77
1767762158,6025.761365890503,11420431,77
1767762158,6017.154852549235,11420422,77
1767762158,6008.548339207967,11420415,77
1767762158,6002.826690673828,11420409,77
1767762158,6001.384258270264,11420400,77
1767762158,6003.788312276204,11420394,77
1767762158,6008.01944732666,11420391,77
1767762158,6012.6833120981855,11420379,77
1767762158,6017.635663350423,11420373,77
1767762158,6024.030447006226,11420367,77
1767762158,6033.502419789632,11420362,77
1767762158,6046.772797902425,11420357,77
1767762158,6062.976121902466,11420348,77
1767762158,6079.516013463338,11420345,77
1767762158,6091.969013214111,11420340,77
1767762158,6096.103986104329,11420338,77
1767762158,6089.564959208171,11420336,77
1767762158,6073.74628384908,11420329,77
1767762158,6053.359905878703,11420327,77
1767762158,6034.944852193196,11420324,77
1767762158,6023.934284845988,11420323,77
1767762158,6022.011041641235,11420321,77
1767762158,6026.530663172404,11420316,77
1767762158,6031.531095504761,11420319,77
1767762158,6030.232906341553,11420319,77
1767762158,6018.260717391968,11420316,77
1767762158,5996.576150258382,11420316,77
1767762158,5971.622069676717,11420318,77
1767762158,5953.543583552043,11420319,77
1767762158,5950.947205225627,11420319,77
1767762158,5966.477394104004,11420323,77
1767762158,5994.797150293986,11420325,77
1767762158,6024.270852406819,11420326,77
1767762158,6042.301257451375,11420327,77
1767762159,6041.628122329712,11420334,77
1767762159,6024.751663208008,11420338,77
1767762159,6005.278825759888,11420336,77
1767762159,6003.499825795491,11420342,77
1767762159,6037.973960240682,11420347,77
1767762159,6115.9614721934,11420350,77
1767762159,6227.269172668457,11420354,77
1767762159,6344.490845998128,11420363,77
1767762159,6431.325276692708,11420362,77
1767762159,6454.1637897491455,11420366,77
1767762159,6394.73557472229,11420373,84
1767762159,6257.560253143311,11420377,84
1767762159,6069.515148798625,11420379,84
1767762159,5872.575044631958,11420386,84
1767762159,5710.20523707072,11420391,84
1767762159,5614.42772547404,11420391,84
1767762159,5596.349239349365,11420397,84
1767762159,5645.2476978302,11420402,84
1767762159,5735.111236572266,11420402,84
1767762159,5834.831396738688,11420407,84
1767762159,5918.973286946614,11420408,84
1767762159,5973.689556121826,11420408,84
1767762159,5998.451312383016,11420412,84
1767762159,6002.057393391927,11420413,84
1767762159,5996.8165556589765,11420416,84
1767762159,5992.5854206085205,11420415,84
1767762159,5993.450880050659,11420414,84
1767762159,5998.355150222778,11420414,84
1767762159,6003.788312276204,11420410,84
1767762159,6006.961663564046,11420409,84
1767762159,6007.346312204997,11420408,84
1767762159,6006.480852762858,11420404,84
1767762159,6006.480852762858,11420402,84
1767762159,6008.740663528442,11420396,84
1767762159,6013.500690460205,11420394,84
1767762159,6019.991636276245,11420386,84
1767762159,6027.011473973592,11420381,84
1767762159,6033.838987350464,11420375,84
1767762159,6040.810743967692,11420367,84
1767762159,6048.744122187297,11420360,84
1767762159,6057.254473368327,11420352,84
1767762159,6064.322392145793,11420340,84
1767762159,6066.582202911377,11420334,84
1767762159,6061.629851659139,11420327,84
1767762159,6049.465338389079,11420314,84
1767762159,6033.550500869751,11420305,84
1767762159,6019.414663314819,11420292,84
1767762159,6012.87563641866,11420280,84
1767762159,6016.96252822876,11420268,84
1767762159,6031.002203623454,11420256,84
1767762159,6049.80190594991,11420245,84
1767762159,6065.909067789714,11420232,84
1767762159,6072.880824406941,11420218,84
1767762159,6068.553527196248,11420205,84
1767762159,6056.629419326782,11420193,84
1767762159,6044.897635777791,11420180,84
1767762159,6041.916608810425,11420168,84
1767762159,6052.927176157634,11420154,84
1767762159,6078.0735810597735,11420142,84
1767762159,6111.874580383301,11420130,84
1767762159,6145.531336466472,11420117,84
1767762159,6170.34117380778,11420104,84
1767762159,6180.390119552612,11420088,84
1767762159,6175.19736289978,11420073,283
1767762159,6158.994038899739,11420066,283
1767762159,6138.126850128174,11420053,283
1767762159,6118.317445119222,11420042,283
1767762159,6102.546850840251,11420027,283
1767762159,6090.718905131022,11420018,283
1767762159,6081.295013427734,11420007,283
1767762159,6071.871121724446,11419998,283
1767762159,6061.197121938069,11419993,283
1767762159,6048.696041107178,11419979,283
1767762159,6034.944852193196,11419969,283
1767762159,6020.905176798503,11419964,283
1767762159,6007.1539878845215,11419956,283
1767762159,5993.8836097717285,11419945,283
1767762159,5981.478691101074,11419938,283
1767762159,5971.333583196004,11419929,283
1767762159,5966.044664382935,11419928,283
1767762159,5968.2563940684,11419921,283
1767762159,5978.786150614421,11419918,283
1767762159,5995.951096216838,11419910,283
1767762159,6014.89504178365,11419909,283
1767762159,6029.8482577006025,11419904,283
1767762159,6035.569906234741,11419899,283
1767762159,6029.463609059651,11419896,283
1767762159,6012.827555338542,11419894,283
1767762159,5990.421772003174,11419895,283
1767762159,5969.218015670776,11419890,283
1767762159,5955.178340276082,11419891,283
1767762159,5950.995286305745,11419886,283
1767762159,5955.034097035726,11419889,283
1767762159,5962.919394175212,11419889,283
1767762159,5969.8911507924395,11419887,283
1767762159,5972.776015599568,11419887,283
1767762159,5971.1893399556475,11419891,283
1767762159,5967.871745427449,11419894,283
1767762159,5967.05436706543,11419892,283
1767762159,5972.872177759807,11419894,283
1767762159,5987.0560963948565,11419896,283
1767762159,6008.500258127849,11419897,283
1767762159,6032.588879267375,11419897,283
1767762159,6054.465770721436,11419896,283
1767762159,6069.9959595998125,11419901,283
1767762159,6077.496608098348,11419905,283
1767762159,6077.688932418823,11419902,283
1767762159,6072.784662246704,11419907,283
1767762159,6066.1013921101885,11419911,283
1767762159,6060.139338175456,11419911,283
1767762159,6056.244770685832,11419913,283
1767762159,6053.600311279297,11419918,283
1767762159,6050.138473510742,11419917,283
1767762159,6043.7436898549395,11419916,283
1767762159,6033.59858194987,11419921,283
1767762159,6020.424365997314,11419921,283
1767762159,6006.336609522502,11419922,283
1767762159,5994.124015172322,11419925,283
1767762159,5986.575285593669,11419924,283
1767762159,5985.277096430461,11419927,283
1767762159,5990.517934163411,11419929,283
1767762159,6000.470717748006,11419929,283
1767762159,6012.394825617473,11419929,283
1767762159,6023.309230804443,11419932,283
1767762159,6032.059987386067,11419933,283
1767762159,6038.743257522583,11419934,283
1767762159,6044.512987136841,11419938,283
1767762159,6050.523122151692,11419933,283
1767762159,6056.72558148702,11419938,283
1767762159,6061.726013819377,11419937,283
1767762159,6063.024202982585,11419940,283
1767762159,6057.735284169515,11419942,283
1767762159,6044.032176335652,11419937,283
1767762159,6023.06882540385,11419940,283
1767762159,5999.172528584798,11419939,283
1767762159,5978.449583053589,11419939,283
1767762159,5966.717799504598,11419944,283
1767762159,5966.813961664836,11419941,283
1767762159,5977.728366851807,11419940,283
1767762159,5994.989474614461,11419939,283
1767762159,6012.635231018066,11419944,283
1767762159,6025.2805550893145,11419941,283
1767762159,6030.569473902385,11419943,283
1767762159,6030.617554982503,11419945,283
1767762159,6030.8098793029785,11419944,283
1767762159,6037.108500798543,11419947,283
1767762159,6052.638689676921,11419945,283
1767762159,6075.38104057312,11419943,283
1767762159,6098.604202270508,11419947,283
1767762159,6113.365093866984,11419951,283
1767762159,6111.970742543538,11419949,283
1767762159,6091.728607813518,11419952,283
1767762159,6056.340932846069,11419954,283
1767762159,6015.423933664958,11419953,283
1767762159,5981.478691101074,11419953,283
1767762159,5964.698394139607,11419957,283
1767762159,5968.68912378947,11419961,283
1767762159,5989.315907160441,11419961,283
1767762159,6016.385555267334,11419960,283
1767762159,6038.262446721395,11419967,283
1767762159,6046.820878982544,11419966,283
1767762159,6040.426095326741,11419972,283
1767762159,6024.174690246582,11419975,283
1767762159,6007.202068964641,11419973,283
1767762159,5997.970501581828,11419980,283
1767762159,5999.364852905273,11419982,283
1767762159,6007.009744644165,11419986,283
1767762159,6011.337041854858,11419987,283
1767762159,6003.211339314778,11419993,283
1767762159,5980.084339777629,11419998,283
1767762159,5950.225989023845,11420002,283
1767762159,5930.945475896199,11420006,283
1767762159,5942.821502685547,11420008,283
1767762159,6000.759204228719,11420010,283
1767762159,6105.720202128093,11420020,283
1767762159,6240.635712941487,11420021,283
1767762159,6372.906764348348,11420028,283
1767762159,6463.491519292195,11420028,283
1767762159,6480.416059494019,11420035,283
1767762159,6410.073439280192,11420041,129
1767762159,6263.3780638376875,11420040,129
1767762159,6072.351932525635,11420048,129
1767762159,5880.796909332275,11420054,129
1767762159,5730.591615041097,11420057,129
1767762159,5649.3345896403,11420058,129
1767762159,5643.0840492248535,11420064,129
1767762159,5696.982940038045,11420073,129
1767762159,5782.42301940918,11420075,129
1767762159,5868.103504180908,11420079,129
1767762159,5930.993556976318,11420079,129
1767762159,5961.573123931885,11420078,129
1767762159,5964.265664418538,11420081,129
1767762159,5951.956907908122,11420081,129
1767762159,5939.744313557942,11420086,129
1767762159,5939.02309735616,11420088,129
1767762159,5953.63974571228,11420088,129
1767762159,5980.2766640981035,11420093,129
1767762159,6010.808149973552,11420092,129
1767762159,6036.964257558187,11420087,129
1767762159,6053.119500478108,11420092,129
1767762159,6058.31225713094,11420087,129
1767762159,6054.754257202148,11420089,129
1767762159,6046.6766357421875,11420084,129
1767762159,6038.310527801514,11420079,129
1767762159,6032.733122507731,11420081,129
1767762159,6031.290690104167,11420075,129
1767762159,6032.877365748088,11420068,129
1767762159,6034.848690032959,11420069,129
1767762159,6034.175554911296,11420063,129
1767762159,6028.886636098226,11420053,129
1767762159,6019.318501154582,11420050,129
1767762159,6007.538636525472,11420045,129
1767762159,5997.48969078064,11420036,129
1767762159,5993.835528691609,11420030,129
1767762159,6000.230312347412,11420020,129
1767762159,6017.731825510661,11420016,129
1767762159,6043.262879053752,11420006,129
1767762159,6070.428689320882,11419997,129
1767762159,6091.680526733398,11419987,129
1767762159,6101.440985997518,11419979,129
1767762159,6098.219553629558,11419971,129
1767762159,6085.766553878784,11419961,129
1767762159,6070.861419041951,11419955,129
1767762159,6061.677932739258,11419944,129
1767762159,6063.745419184367,11419934,129
1767762159,6077.881256739299,11419923,129
1767762159,6099.421580632527,11419913,129
1767762159,6119.856039683024,11419903,129
1767762159,6130.914688110352,11419895,129
1767762159,6128.318309783936,11419886,129
1767762159,6113.317012786865,11419879,129
1767762159,6092.401742935181,11419871,129
1767762159,6074.130932490031,11419863,129
1767762159,6065.524419148763,11419852,129
1767762159,6069.418986638387,11419843,129
1767762159,6083.122094472249,11419836,129
1767762159,6099.4696617126465,11419830,129
1767762159,6109.710931777954,11419821,129
1767762159,6107.739607493083,11419813,129
1767762159,6092.642148335774,11419809,129
1767762159,6068.793932596843,11419802,129
1767762159,6043.839852015178,11419798,129
1767762159,6025.08823076884,11419791,129
1767762159,6016.722122828166,11419789,129
1767762159,6018.501122792562,11419785,129
1767762159,6025.809446970622,11419784,129
1767762159,6031.915744145711,11419778,129
1767762159,6030.954122543335,11419777,129
1767762159,6020.376284917195,11419775,129
1767762159,6002.2977987925215,11419776,129
1767762159,5982.151826222737,11419777,129
1767762160,5966.044664382935,11419776,129
1767762160,5958.015124003093,11419777,129
1767762160,5958.49593480428,11419776,129
1767762160,5964.313745498657,11419780,129
1767762160,5970.756610234578,11419780,129
1767762160,5973.352988560994,11419783,129
1767762160,5969.987312952678,11419788,129
1767762160,5962.486664454143,11419787,129
1767762160,5955.851475397746,11419792,129
1767762160,5955.803394317627,11419795,129
1767762160,5966.429313023885,11419795,129
1767762160,5987.296501795451,11419800,129
1767762160,6014.12574450175,11419807,129
1767762160,6039.993365605672,11419811,129
1767762160,6058.168013890584,11419815,129
1767762160,6064.322392145793,11419817,129
1767762160,6057.975689570109,11419821,129
1767762160,6042.637825012207,11419826,129
1767762160,6024.463176727295,11419835,129
1767762160,6009.702285130818,11419836,129
1767762160,6002.249717712402,11419843,129
1767762160,6002.34587987264,11419847,129
1767762160,6007.298231124878,11419852,129
1767762160,6013.548771540324,11419854,129
1767762160,6018.068393071492,11419865,129
1767762160,6019.847393035889,11419865,129
1767762160,6019.414663314819,11419867,129
1767762160,6018.645366032918,11419873,129
1767762160,6019.558906555176,11419878,129
1767762160,6023.06882540385,11419885,129
1767762160,6028.790473937988,11419889,129
1767762160,6034.80060895284,11419890,129
1767762160,6039.801041285197,11419890,129
1767762160,6043.359041213989,11419897,129
1767762160,6046.3400681813555,11419897,129
1767762160,6049.994230270386,11419902,129
1767762160,6054.706176122029,11419902,129
1767762160,6059.466203053792,11419906,129
1767762160,6062.158743540446,11419905,129
1767762160,6060.331662495931,11419911,129
1767762160,6052.494446436564,11419911,129
1767762160,6038.743257522583,11419915,129
1767762160,6022.107203801473,11419915,129
1767762160,6006.961663564046,11419917,129
1767762160,5998.210906982422,11419916,129
1767762160,5998.69171778361,11419919,129
1767762160,6007.682879765828,11419918,129
1767762160,6021.38598759969,11419919,129
1767762160,6034.319798151652,11419922,129
1767762160,6041.387716929118,11419922,129
1767762160,6039.608716964722,11419925,129
1767762160,6028.742392857869,11419926,129
1767762160,6011.817852656047,11419927,129
1767762160,5993.931690851848,11419927,129
1767762160,5980.132420857747,11419924,129
1767762160,5974.314610163371,11419927,129
1767762160,5977.247556050618,11419932,129
1767762160,5987.3926639556885,11419933,129
1767762160,6001.865069071452,11419933,129
1767762160,6017.635663350423,11419933,129
1767762160,6031.819581985474,11419939,129
1767762160,6042.493581771851,11419939,129
1767762160,6048.696041107178,11419941,129
1767762160,6050.859689712524,11419941,129
1767762160,6050.619284311931,11419947,129
1767762160,6049.705743789673,11419949,129
1767762160,6049.946149190267,11419948,129
1767762160,6052.542527516683,11419955,129
1767762160,6057.879527409871,11419957,129
1767762160,6065.187851587932,11419964,129
1767762160,6071.967283884685,11419965,129
1767762160,6074.467500050862,11419962,129
1767762160,6069.659392038981,11419972,129
1767762160,6056.100527445476,11419975,129
1767762160,6035.61798731486,11419983,129
1767762160,6012.394825617473,11419983,129
1767762160,5991.6237990061445,11419989,129
1767762160,5977.728366851807,11419994,129
1767762160,5972.920258839925,11420002,129
1767762160,5975.901285807292,11420006,129
1767762160,5982.87304242452,11420011,129
1767762160,5989.0274206797285,11420015,129
1767762160,5991.431474685669,11420022,129
1767762160,5991.046826044719,11420031,129
1767762160,5991.912285486857,11420038,129
1767762160,5999.028285344441,11420045,129
1767762160,6014.462312062581,11420054,129
1767762160,6035.137176513672,11420058,129
1767762160,6053.119500478108,11420065,129
1767762160,6058.119932810466,11420074,129
1767762160,6042.830149332683,11420081,129
1767762160,6007.730960845947,11420087,129
1767762160,5964.073340098063,11420097,129
1767762160,5932.051340738933,11420099,129
1767762160,5934.311151504517,11420114,129
1767762160,5986.575285593669,11420118,129
1767762160,6088.699499766032,11420122,129
1767762160,6222.028334935506,11420131,129
1767762160,6352.905035018921,11420138,129
1767762160,6442.62433052063,11420147,129
1767762160,6460.07776260376,11420154,129
1767762160,6392.908493677775,11420159,87
1767762160,6252.655982971191,11420166,87
1767762160,6072.015364964803,11420173,87
1767762160,5894.355773925781,11420177,87
1767762160,5759.536425272624,11420183,87
1767762160,5691.742102305095,11420189,87
1767762160,5693.328777949016,11420195,87
1767762160,5747.13150660197,11420200,87
1767762160,5825.1190185546875,11420203,87
1767762160,5898.779233296712,11420211,87
1767762160,5949.072043100993,11420214,87
1767762160,5970.468123753865,11420216,87
1767762160,5969.746907552083,11420223,87
1767762160,5960.323015848796,11420221,87
1767762160,5954.553286234538,11420225,87
1767762160,5958.399772644043,11420227,87
1767762160,5970.660448074341,11420229,87
1767762160,5985.469420750936,11420227,87
1767762160,5996.768474578857,11420229,87
1767762160,6001.576582590739,11420230,87
1767762160,6001.191933949788,11420228,87
1767762160,6000.182231267293,11420226,87
1767762160,6003.644069035848,11420219,87
1767762160,6014.12574450175,11420220,87
1767762160,6030.4733117421465,11420217,87
1767762160,6047.830581665039,11420216,87
1767762160,6060.764392217,11420212,87
1767762160,6065.668662389119,11420204,87
1767762160,6062.302986780803,11420202,87
1767762160,6053.648392359416,11420194,87
1767762160,6043.359041213989,11420188,87
1767762160,6034.656365712483,11420181,87
1767762160,6028.838555018107,11420172,87
1767762160,6025.184392929077,11420168,87
1767762160,6022.107203801473,11420158,87
1767762160,6018.212636311849,11420152,87
1767762160,6013.6449337005615,11420144,87
1767762160,6010.663906733195,11420135,87
1767762160,6012.442906697591,11420125,87
1767762160,6021.38598759969,11420117,87
1767762160,6037.396987279256,11420108,87
1767762160,6057.975689570109,11420098,87
1767762160,6078.987121582031,11420090,87
1767762160,6096.152067184448,11420082,87
1767762160,6106.489499409993,11420072,87
1767762160,6109.037796656291,11420061,87
1767762160,6105.191310246785,11420049,87
1767762160,6097.931067148845,11420042,87
1767762160,6091.007391611735,11420034,87
1767762160,6087.305148442586,11420025,87
1767762160,6087.785959243774,11420018,87
1767762160,6091.728607813518,11420006,87
1767762160,6097.498337427775,11419995,87
1767762160,6103.268067042033,11419990,87
1767762160,6107.354958852132,11419980,87
1767762160,6108.460823694865,11419974,87
1767762160,6105.864445368449,11419966,87
1767762160,6099.565823872884,11419956,87
1767762160,6090.334256490071,11419951,87
1767762160,6078.7467161814375,11419946,87
1767762160,6065.380175908406,11419940,87
1767762160,6050.811608632405,11419931,87
1767762160,6035.61798731486,11419927,87
1767762160,6020.857095718384,11419924,87
1767762160,6007.538636525472,11419920,87
1767762160,5996.335744857788,11419920,87
1767762160,5987.825393676758,11419913,87
1767762160,5980.468988418579,11419910,87
1767762160,5981.911420822144,11419907,87
1767762160,5985.565582911174,11419907,87
1767762160,5990.133285522461,11419907,87
1767762160,5994.412501653035,11419908,87
1767762160,5997.393528620402,11419908,87
1767762160,5998.595555623372,11419908,87
1767762160,5997.922420501709,11419912,87
1767762160,5995.566447575887,11419910,87
1767762160,5992.489258448283,11419911,87
1767762160,5989.940961201985,11419915,87
1767762160,5988.883177439372,11419919,87
1767762160,5989.460150400798,11419919,87
1767762160,5991.239150365193,11419923,87
1767762160,5993.258555730184,11419927,87
1767762160,5994.8452313741045,11419930,87
1767762160,5995.326042175293,11419937,87
1767762160,5994.2201773325605,11419940,87
1767762160,5991.960366566976,11419946,87
1767762160,5989.844799041748,11419946,87
1767762160,5989.796717961629,11419957,87
1767762160,5993.595123291016,11419960,87
1767762160,6002.201636632283,11419966,87
1767762160,6014.702717463176,11419968,87
1767762160,6053.600311279297,11419988,87
1767762160,6058.216094970703,11419990,87
1767762160,6056.533257166545,11419997,87
1767762160,6049.994230270386,11419997,87
1767762160,6041.868527730306,11420005,87
1767762160,6035.61798731486,11420009,87
1767762160,6033.358176549275,11420014,87
1767762160,6035.137176513672,11420018,87
1767762160,6038.935581843059,11420025,87
1767762160,6041.676203409831,11420026,87
1767762160,6040.666500727336,11420032,87
1767762160,6034.464041392009,11420036,87
1767762160,6024.078528086345,11420040,87
1767762160,6012.923717498779,11420042,87
1767762160,6005.471150080363,11420045,87
1767762160,6005.230744679769,11420050,87
1767762160,6013.164122899373,11420053,87
1767762160,6026.722987492879,11420053,87
1767762160,6041.868527730306,11420059,87
1767762160,6053.936878840129,11420063,87
1767762160,6060.091257095337,11420062,87
1767762160,6059.706608454387,11420068,87
1767762160,6054.321527481079,11420071,87
1767762160,6047.542095184326,11420069,87
1767762160,6042.349338531494,11420071,87
1767762160,6040.08952776591,11420073,87
1767762160,6039.512554804484,11420076,87
1767762160,6037.541230519612,11420073,87
1767762160,6031.386852264404,11420073,87
1767762160,6020.135879516602,11420077,87
1767762160,6005.326906840007,11420080,87
1767762160,5990.133285522461,11420081,87
1767762160,5978.305339813232,11420077,87
1767762160,5972.872177759807,11420081,87
1767762160,5974.939664204915,11420079,87
1767762160,5983.450015385945,11420081,87
1767762160,5995.42220433553,11420084,87
1767762160,6007.394393285115,11420081,87
1767762160,6017.154852549235,11420084,87
1767762160,6023.934284845988,11420085,87
1767762160,6027.92501449585,11420086,87
1767762160,6029.655933380127,11420082,87
1767762160,6029.1751225789385,11420083,87
1767762160,6026.482582092285,11420085,87
1767762160,6022.0591227213545,11420090,87
1767762160,6017.010609308879,11420086,87
1767762160,6013.164122899373,11420084,87
1767762160,6012.49098777771,11420088,87
1767762160,6016.770203908284,11420094,87
1767762160,6026.338338851929,11420092,87
1767762160,6039.801041285197,11420094,87
1767762160,6053.984959920247,11420093,87
1767762160,6065.332094828288,11420101,87
1767762160,6071.246067682902,11420102,87
1767762160,6071.390310923259,11420102,87
1767762160,6067.063013712565,11420106,87
1767762161,6059.9950949351,11420106,87
1767762161,6051.677068074544,11420108,87
1767762161,6042.878230412801,11420113,87
1767762161,6033.98323059082,11420116,87
1767762161,6025.424798329671,11420123,87
1767762161,6017.972230911255,11420123,87
1767762161,6013.116041819255,11420129,87
1767762161,6012.298663457234,11420130,87
1767762161,6015.760501225789,11420134,87
1767762161,6021.43406867981,11420136,87
1767762161,6024.992068608602,11420142,87
1767762161,6021.770636240642,11420151,87
1767762161,6009.702285130818,11420151,87
1767762161,5991.239150365193,11420157,87
1767762161,5973.016421000163,11420159,87
1767762161,5963.063637415568,11420165,87
1767762161,5966.525475184123,11420169,87
1767762161,5982.680718104045,11420176,87
1767762161,6004.028717676799,11420182,87
1767762161,6018.5972849528,11420185,87
1767762161,6016.2413120269775,11420188,87
1767762161,5994.65290705363,11420194,87
1767762161,5963.784853617351,11420200,87
1767762161,5944.263935089111,11420204,87
1767762161,5959.649880727132,11420211,87
1767762161,6026.001771291097,11420218,87
1767762161,6142.069498697917,11420219,87
1767762161,6286.3608201344805,11420226,87
1767762161,6421.1320877075195,11420229,87
1767762161,6503.975788752238,11420236,87
1767762161,6502.773761749268,11420242,83
1767762161,6407.573223114014,11420243,83
1767762161,6236.260334650676,11420248,83
1767762161,6029.223203659058,11420253,83
1767762161,5836.273829142253,11420254,83
1767762161,5699.819723765056,11420258,83
1767762161,5642.218589782715,11420259,83
1767762161,5660.5855623881025,11420263,83
1767762161,5731.120506922404,11420267,83
1767762161,5819.782018661499,11420273,83
1767762161,5895.317395528157,11420271,83
1767762161,5939.648151397705,11420276,83
1767762161,5951.812664667766,11420275,83
1767762161,5944.215854008992,11420278,83
1767762161,5934.503475824992,11420280,83
1767762161,5936.907529830933,11420277,83
1767762161,5956.09188079834,11420279,83
1767762161,5987.488826115926,11420278,83
1767762161,6020.520528157552,11420279,83
1767762161,6044.801473617554,11420277,83
1767762161,6054.27344640096,11420276,83
1767762161,6049.369176228841,11420274,83
1767762161,6036.098798116048,11420269,83
1767762161,6022.828420003255,11420268,83
1767762161,6016.000906626384,11420267,83
1767762161,6017.635663350423,11420262,83
1767762161,6025.2805550893145,11420256,83
1767762161,6033.887068430583,11420253,83
1767762161,6038.887500762939,11420253,83
1767762161,6037.541230519612,11420245,83
1767762161,6030.184825261434,11420243,83
1767762161,6019.318501154582,11420231,83
1767762161,6008.644501368205,11420230,83
1767762161,6001.865069071452,11420223,83
1767762161,6001.191933949788,11420217,83
1767762161,6006.8174203236895,11420206,83
1767762161,6017.251014709473,11420205,83
1767762161,6030.040582021077,11420196,83
1767762161,6043.022473653157,11420191,83
1767762161,6054.369608561198,11420179,83
1767762161,6062.928040822347,11420175,83
1767762161,6068.6977704366045,11420165,83
1767762161,6072.400013605754,11420161,83
1767762161,6075.813770294189,11420150,83
1767762161,6080.141067504883,11420144,83
1767762161,6085.574229558309,11420134,83
1767762161,6090.911229451497,11420129,83
1767762161,6094.421148300171,11420121,83
1767762161,6094.46922938029,11420113,83
1767762161,6090.574661890666,11420106,83
1767762161,6083.5067431132,11420099,83
1767762161,6075.76568921407,11420094,83
1767762161,6070.3325271606445,11420086,83
1767762161,6070.140202840169,11420077,83
1767762161,6076.19841893514,11420072,83
1767762161,6086.920499801636,11420069,83
1767762161,6098.700364430745,11420061,83
1767762161,6107.403039932251,11420053,83
1767762161,6110.239823659261,11420051,83
1767762161,6106.441418329875,11420045,83
1767762161,6097.402175267537,11420044,83
1767762161,6085.574229558309,11420036,83
1767762161,6073.217391967773,11420035,83
1767762161,6061.822175979614,11420033,83
1767762161,6050.9077707926435,11420030,83
1767762161,6038.791338602702,11420026,83
1767762161,6023.693879445394,11420029,83
1767762161,6005.759636561076,11420026,83
1767762161,5987.152258555095,11420028,83
1767762161,5971.8624750773115,11420023,83
1767762161,5963.496367136638,11420023,83
1767762161,5963.929096857707,11420023,83
1767762161,5971.91055615743,11420029,83
1767762161,5983.978907267253,11420029,83
1767762161,5995.1817989349365,11420031,83
1767762161,6000.903447469075,11420030,83
1767762161,5998.69171778361,11420033,83
1767762161,5989.6524747212725,11420038,83
1767762161,5978.0168533325195,11420043,83
1767762161,5969.218015670776,11420045,83
1767762161,5967.679421106975,11420047,83
1767762161,5974.603096644084,11420054,83
1767762161,5988.306204477946,11420058,83
1767762161,6004.653771718343,11420067,83
1767762161,6018.645366032918,11420068,83
1767762161,6026.194095611572,11420075,83
1767762161,6025.47287940979,11420078,83
1767762161,6017.827987670898,11420084,83
1767762161,6007.442474365234,11420090,83
1767762161,5999.220609664917,11420096,83
1767762161,5997.201204299927,11420103,83
1767762161,6002.730528513591,11420109,83
1767762161,6014.558474222819,11420116,83
1767762161,6029.1751225789385,11420124,83
1767762161,6041.964689890544,11420127,83
1767762161,6048.503716786702,11420137,83
1767762161,6046.388149261475,11420143,83
1767762161,6036.387284596761,11420147,83
1767762161,6022.107203801473,11420156,83
1767762161,6008.981068929036,11420161,83
1767762161,6001.961231231689,11420166,83
1767762161,6003.403663635254,11420172,83
1767762161,6012.87563641866,11420177,83
1767762161,6026.9153118133545,11420187,83
1767762161,6040.5222574869795,11420188,83
1767762161,6048.9364465077715,11420199,83
1767762161,6049.561500549316,11420207,83
1767762161,6043.262879053752,11420209,83
1767762161,6034.3678792317705,11420216,83
1767762161,6027.973095575969,11420222,83
1767762161,6028.069257736206,11420227,83
1767762161,6035.185257593791,11420236,83
1767762161,6046.388149261475,11420241,83
1767762161,6056.917905807495,11420243,83
1767762161,6061.726013819377,11420246,83
1767762161,6058.264176050822,11420255,83
1767762161,6047.253608703613,11420261,83
1767762161,6032.877365748088,11420266,83
1767762161,6020.905176798503,11420271,83
1767762161,6015.9047444661455,11420272,83
1767762161,6019.030014673869,11420283,83
1767762161,6027.588446935018,11420284,83
1767762161,6036.579608917236,11420290,83
1767762161,6041.580041249593,11420298,83
1767762161,6040.233771006267,11420298,83
1767762161,6033.550500869751,11420307,83
1767762161,6024.6555010477705,11420310,83
1767762161,6017.539501190186,11420316,83
1767762161,6014.558474222819,11420323,83
1767762161,6015.423933664958,11420325,83
1767762161,6017.058690388997,11420328,83
1767762161,6015.375852584839,11420334,83
1767762161,6008.356014887492,11420339,83
1767762161,5996.960798899333,11420345,83
1767762161,5985.661745071411,11420350,83
1767762161,5979.843934377034,11420351,83
1767762161,5982.969204584758,11420361,83
1767762161,5995.229880015056,11420363,83
1767762161,6012.731393178304,11420367,83
1767762161,6029.12704149882,11420376,83
1767762161,6038.118203481038,11420380,83
1767762161,6036.627689997355,11420386,83
1767762161,6026.194095611572,11420392,83
1767762161,6012.923717498779,11420395,83
1767762161,6004.413366317749,11420401,83
1767762161,6006.096204121907,11420408,83
1767762161,6018.453041712443,11420412,83
1767762161,6036.964257558187,11420417,83
1767762161,6053.984959920247,11420427,83
1767762161,6062.447230021159,11420432,83
1767762161,6058.6488246917725,11420433,83
1767762161,6044.4168249766035,11420443,83
1767762161,6026.674906412761,11420450,83
1767762161,6014.6065553029375,11420451,83
1767762161,6015.423933664958,11420460,83
1767762161,6030.857960383098,11420467,83
1767762161,6055.908203125,11420474,83
1767762161,6081.150770187378,11420479,83
1767762161,6096.5367158253985,11420483,83
1767762161,6095.5750942230225,11420493,83
1767762161,6078.0735810597735,11420498,83
1767762161,6049.898068110148,11420506,83
1767762161,6020.7609335581465,11420512,83
1767762161,6000.086069107056,11420520,83
1767762161,5992.825826009114,11420528,83
1767762161,5997.201204299927,11420535,83
1767762161,6006.144285202026,11420541,83
1767762161,5993.01815032959,11420560,83
1767762161,5975.94936688741,11420568,83
1767762161,5963.304042816162,11420574,83
1767762161,5960.899988810222,11420584,83
1767762161,5969.314177831014,11420587,83
1767762161,5982.87304242452,11420594,83
1767762161,5992.5854206085205,11420600,83
1767762161,5991.671880086263,11420611,83
1767762161,5981.23828570048,11420616,83
1767762161,5972.391366958618,11420621,83
1767762161,5982.969204584758,11420628,83
1767762161,6029.800176620483,11420636,83
1767762161,6118.990580240886,11420644,83
1767762161,6240.347226460774,11420646,83
1767762161,6366.896629333496,11420653,83
1767762161,6461.7125193278,11420657,83
1767762161,6490.224599838257,11420663,83
1767762161,6432.719628016154,11420671,81
1767762161,6293.524901072185,11420675,81
1767762161,6101.34482383728,11420678,81
1767762161,5900.510152180989,11420686,81
1767762161,5736.6979122161865,11420685,81
1767762161,5642.314751942952,11420691,81
1767762161,5627.601941426595,11420692,81
1767762161,5679.962237675984,11420695,81
1767762161,5770.6912358601885,11420700,81
1767762161,5866.949558258057,11420702,81
1767762161,5942.869583765666,11420707,81
1767762161,5986.623366673787,11420708,81
1767762161,6001.191933949788,11420708,81
1767762161,5998.787879943848,11420708,81
1767762161,5992.729663848877,11420709,81
1767762161,5991.479555765788,11420709,81
1767762161,5996.335744857788,11420711,81
1767762161,6003.499825795491,11420706,81
1767762161,6007.730960845947,11420706,81
1767762161,6006.38469060262,11420701,81
1767762161,6000.759204228719,11420701,81
1767762161,5995.470285415649,11420697,81
1767762161,5995.710690816243,11420695,81
1767762161,6004.124879837036,11420693,81
1767762161,6019.126176834106,11420683,81
1767762161,6035.714149475098,11420681,81
1767762161,6048.407554626465,11420674,81
1767762161,6053.600311279297,11420672,81
1767762161,6051.244338353475,11420669,81
1767762162,6044.032176335652,11420656,81
1767762162,6036.002635955811,11420649,81
1767762162,6030.040582021077,11420646,81
1767762162,6027.396122614543,11420636,81
1767762162,6028.742392857869,11420605,81
1767762162,6027.49228477478,11420589,81
1767762162,6027.348041534424,11420583,81
1767762162,6028.982798258464,11420573,81
1767762162,6032.204230626424,11420565,81
1767762162,6036.387284596761,11420553,81
1767762162,6041.1473115285235,11420548,81
1767762162,6047.0132033030195,11420534,81
1767762162,6054.706176122029,11420527,81
1767762162,6064.995527267456,11420515,81
1767762162,6077.785094579061,11420506,81
1767762162,6092.01709429423,11420495,81
1767762162,6105.864445368449,11420487,81
1767762162,6116.9711748758955,11420477,81
1767762162,6123.65444501241,11420470,81
1767762162,6125.577688217163,11420459,81
1767762162,6123.798688252767,11420455,81
1767762162,6120.1926072438555,11420437,81
1767762162,6116.201877593994,11420435,81
1767762162,6111.682256062825,11420423,81
1767762162,6105.81636428833,11420418,81
1767762162,6097.642580668132,11420406,81
1767762162,6087.016661961873,11420406,81
1767762162,6074.515581130981,11420394,81
1767762162,6061.2452030181885,11420391,81
1767762162,6048.455635706584,11420384,81
1767762162,6036.579608917236,11420379,81
1767762162,6025.520960489909,11420374,81
1767762162,6014.221906661987,11420368,81
1767762162,6002.105474472046,11420365,81
1767762162,5989.844799041748,11420361,81
1767762162,5980.084339777629,11420359,81
1767762162,5976.334015528361,11420355,81
1767762162,5981.094042460124,11420352,81
1767762162,5994.124015172322,11420354,81
1767762162,6012.154420216878,11420349,81
1767762162,6029.800176620483,11420349,81
1767762162,6041.099230448405,11420346,81
1767762162,6041.868527730306,11420349,81
1767762162,6031.386852264404,11420346,81
1767762162,6012.587149937947,11420351,81
1767762162,5991.335312525432,11420350,81
1767762162,5973.737637201945,11420354,81
1767762162,5964.073340098063,11420353,81
1767762162,5962.919394175212,11420354,81
1767762162,5967.823664347331,11420361,81
1767762162,5975.131988525391,11420358,81
1767762162,5981.67101542155,11420362,81
1767762162,5985.950231552124,11420364,81
1767762162,5988.258123397827,11420367,81
1767762162,5990.373690923055,11420373,81
1767762162,5994.075934092204,11420372,81
1767762162,6000.518798828125,11420378,81
1767762162,6009.029150009155,11420380,81
1767762162,6017.635663350423,11420385,81
1767762162,6024.415095647176,11420388,81
1767762162,6028.742392857869,11420392,81
1767762162,6031.531095504761,11420394,81
1767762162,6034.127473831177,11420397,81
1767762162,6038.022041320801,11420402,81
1767762162,6043.262879053752,11420408,81
1767762162,6048.9364465077715,11420410,81
1767762162,6053.07141939799,11420414,81
1767762162,6053.696473439534,11420417,81
1767762162,6049.41725730896,11420419,81
1767762162,6040.762662887573,11420424,81
1767762162,6029.896338780721,11420426,81
1767762162,6020.520528157552,11420430,81
1767762162,6015.664339065552,11420428,81
1767762162,6016.57787958781,11420431,81
1767762162,6022.6841767628985,11420433,81
1767762162,6031.531095504761,11420436,81
1767762162,6040.137608846028,11420438,81
1767762162,6045.426527659099,11420442,81
1767762162,6045.522689819336,11420439,81
1767762162,6040.570338567098,11420441,81
1767762162,6032.540798187256,11420442,81
1767762162,6024.559338887532,11420443,81
1767762162,6019.655068715413,11420444,81
1767762162,6019.126176834106,11420446,81
1767762162,6022.491852442424,11420444,81
1767762162,6028.021176656087,11420445,81
1767762162,6033.021608988444,11420448,81
1767762162,6035.137176513672,11420446,81
1767762162,6032.925446828206,11420447,81
1767762162,6026.626825332642,11420448,81
1767762162,6018.453041712443,11420448,81
1767762162,6011.096636454265,11420447,81
1767762162,6007.105906804402,11420447,81
1767762162,6007.1539878845215,11420446,81
1767762162,6010.567744572957,11420445,81
1767762162,6015.712420145671,11420445,81
1767762162,6020.664771397908,11420445,81
1767762162,6024.222771326701,11420445,81
1767762162,6025.85752805074,11420446,81
1767762162,6025.809446970622,11420443,81
1767762162,6025.136311848958,11420444,81
1767762162,6024.703582127889,11420444,81
1767762162,6024.6555010477705,11420447,81
1767762162,6024.078528086345,11420445,81
1767762162,6022.299528121948,11420444,81
1767762162,6019.174257914226,11420446,81
1767762162,6015.712420145671,11420444,81
1767762162,6013.6449337005615,11420449,81
1767762162,6014.173825581868,11420451,81
1767762162,6017.876068751018,11420448,81
1767762162,6024.3189334869385,11420450,81
1767762162,6032.4446360270185,11420451,81
1767762162,6040.618419647217,11420452,81
1767762162,6047.301689783732,11420457,81
1767762162,6051.965554555257,11420452,81
1767762162,6055.186986923218,11420456,81
1767762162,6058.168013890584,11420461,81
1767762162,6061.726013819377,11420460,81
1767762162,6065.620581309001,11420464,81
1767762162,6068.361202875773,11420466,81
1767762162,6068.793932596843,11420468,81
1767762162,6065.909067789714,11420470,81
1767762162,6059.418121973674,11420477,81
1767762162,6049.2730140686035,11420478,81
1767762162,6036.05071703593,11420475,81
1767762162,6020.809014638265,11420484,81
1767762162,6004.942258199056,11420486,81
1767762162,5989.844799041748,11420492,81
1767762162,5977.439880371094,11420493,81
1767762162,5969.794988632202,11420497,81
1767762162,5968.977610270183,11420496,81
1767762162,5975.660880406697,11420503,81
1767762162,5987.7292315165205,11420505,81
1767762162,5999.797582626343,11420513,81
1767762162,6005.374987920125,11420512,81
1767762162,5999.653339385986,11420517,81
1767762162,5983.065366744995,11420519,81
1767762162,5962.919394175212,11420523,81
1767762162,5952.533880869548,11420532,81
1767762162,5967.535177866618,11420532,81
1767762162,6019.79931195577,11420533,81
1767762162,6110.768715540568,11420540,81
1767762162,6227.94230779012,11420540,81
1767762162,6345.21206219991,11420546,81
1767762162,6429.930925369263,11420548,81
1767762162,6453.2021681467695,11420549,81
1767762162,6399.687925974528,11420555,84
1767762162,6274.003982543945,11420555,84
1767762162,6100.383202234904,11420558,84
1767762162,5916.4730707804365,11420562,84
1767762162,5762.51745223999,11420564,84
1767762162,5668.903589248657,11420566,84
1767762162,5647.747913996379,11420569,84
1767762162,5690.491994222005,11420567,84
1767762162,5772.806803385417,11420569,84
1767762162,5863.96853129069,11420569,84
1767762162,5937.82107035319,11420571,84
1767762162,5979.699691136678,11420570,84
1767762162,5989.0274206797285,11420567,84
1767762162,5976.814826329549,11420568,84
1767762162,5959.361394246419,11420566,84
1767762162,5950.947205225627,11420565,84
1767762162,5958.832502365112,11420561,84
1767762162,5981.286366780599,11420561,84
1767762162,6010.327339172363,11420556,84
1767762162,6036.387284596761,11420554,84
1767762162,6052.494446436564,11420549,84
1767762162,6056.533257166545,11420546,84
1767762162,6050.955851872762,11420542,84
1767762162,6040.954987208049,11420537,84
1767762162,6031.915744145711,11420528,84
1767762162,6027.011473973592,11420521,84
1767762162,6026.242176691691,11420517,84
1767762162,6027.10763613383,11420509,84
1767762162,6027.011473973592,11420504,84
1767762162,6024.463176727295,11420495,84
1767762162,6020.232041676839,11420486,84
1767762162,6016.385555267334,11420480,84
1767762162,6014.9431228637695,11420473,84
1767762162,6016.625960667928,11420459,84
1767762162,6020.953257878621,11420450,84
1767762162,6026.530663172404,11420441,84
1767762162,6031.7715009053545,11420431,84
1767762162,6035.906473795573,11420420,84
1767762162,6039.608716964722,11420412,84
1767762162,6044.4168249766035,11420402,84
1767762162,6052.2059599558515,11420388,84
1767762162,6063.264608383179,11420376,84
1767762162,6075.717608133952,11420371,84
1767762162,6086.776256561279,11420357,84
1767762162,6093.796094258626,11420348,84
1767762162,6096.055905024211,11420333,84
1767762162,6094.805796941121,11420328,84
1767762162,6092.786391576131,11420313,84
1767762162,6092.882553736369,11420303,84
1767762162,6096.969445546468,11420293,84
1767762162,6104.422012964885,11420284,84
1767762162,6112.211147944133,11420271,84
1767762162,6116.201877593994,11420265,84
1767762162,6113.268931706746,11420258,84
1767762162,6103.460391362508,11420246,84
1767762162,6089.901526769002,11420237,84
1767762162,6077.688932418823,11420231,84
1767762162,6071.053743362427,11420219,84
1767762162,6071.582635243733,11420211,84
1767762162,6077.352364857991,11420205,84
1767762162,6083.650986353557,11420200,84
1767762162,6084.9010944366455,11420190,84
1767762162,6076.967716217041,11420182,84
1767762162,6059.418121973674,11420178,84
1767762162,6035.954554875691,11420175,84
1767762162,6012.731393178304,11420172,84
1767762162,5995.8549340566,11420165,84
1767762162,5988.113880157471,11420160,84
1767762162,5988.594690958659,11420161,84
1767762162,5993.258555730184,11420156,84
1767762162,5997.153123219808,11420154,84
1767762162,5996.624231338501,11420151,84
1767762162,5990.854501724243,11420151,84
1767762162,5982.199907302856,11420151,84
1767762162,5974.843502044678,11420148,84
1767762162,5973.064502080281,11420147,84
1767762162,5978.497664133708,11420147,84
1767762162,5989.267826080322,11420147,84
1767762162,6001.095771789551,11420151,84
1767762162,6009.125312169393,11420148,84
1767762162,6010.327339172363,11420150,84
1767762162,6004.653771718343,11420152,84
1767762162,5994.893312454224,11420155,84
1767762162,5985.373258590698,11420157,84
1767762162,5980.709393819173,11420159,84
1767762162,5983.353853225708,11420163,84
1767762162,5992.9219881693525,11420162,84
1767762162,6006.096204121907,11420163,84
1767762162,6017.876068751018,11420170,84
1767762162,6024.415095647176,11420172,84
1767762162,6023.9823659261065,11420176,84
1767762162,6017.924149831136,11420180,84
1767762162,6009.461879730225,11420181,84
1767762162,6002.634366353353,11420187,84
1767762162,6001.14385286967,11420190,84
1767762162,6006.673177083333,11420194,84
1767762162,6018.212636311849,11420197,84
1767762162,6032.540798187256,11420202,84
1767762162,6045.474608739217,11420201,84
1767762162,6053.840716679891,11420212,84
1767762162,6056.581338246663,11420211,84
1767762162,6054.994662602742,11420213,84
1767762162,6051.677068074544,11420212,84
1767762162,6049.224932988484,11420221,84
1767762162,6049.513419469197,11420221,84
1767762162,6052.25404103597,11420223,84
1767762163,6055.571635564168,11420231,84
1767762163,6055.956284205119,11420229,84
1767762163,6050.667365392049,11420235,84
1767762163,6039.320230484009,11420235,84
1767762163,6024.3189334869385,11420240,84
1767762163,6010.183095932007,11420240,84
1767762163,6001.240015029907,11420243,84
1767762163,6000.422636667888,11420245,84
1767762163,6007.682879765828,11420249,84
1767762163,6020.183960596721,11420247,84
1767762163,6033.021608988444,11420251,84
1767762163,6041.003068288167,11420254,84
1767762163,6041.195392608643,11420258,84
1767762163,6034.223635991414,11420258,84
1767762163,6023.790041605632,11420260,84
1767762163,6015.375852584839,11420261,84
1767762163,6012.971798578898,11420265,84
1767762163,6017.731825510661,11420266,84
1767762163,6027.780771255493,11420270,84
1767762163,6038.791338602702,11420269,84
1767762163,6046.195824940999,11420270,84
1767762163,6047.109365463257,11420275,84
1767762163,6041.531960169475,11420274,84
1767762163,6032.733122507731,11420278,84
1767762163,6025.47287940979,11420280,84
1767762163,6023.4534740448,11420282,84
1767762163,6026.9153118133545,11420285,84
1767762163,6032.78120358785,11420289,84
1767762163,6035.906473795573,11420290,84
1767762163,6031.915744145711,11420296,84
1767762163,6019.174257914226,11420293,84
1767762163,5999.89374478658,11420295,84
1767762163,5979.747772216797,11420299,84
1767762163,5965.660015741984,11420306,84
1767762163,5963.255961736043,11420305,84
1767762163,5973.7857182820635,11420313,84
1767762163,5993.643204371135,11420311,84
1767762163,6016.000906626384,11420319,84
1767762163,6033.935149510701,11420317,84
1767762163,6043.31096013387,11420325,84
1767762163,6044.032176335652,11420327,84
1767762163,6039.608716964722,11420334,84
1767762163,6034.992933273315,11420335,84
1767762163,6034.512122472127,11420344,84
1767762163,6039.801041285197,11420343,84
1767762163,6049.369176228841,11420349,84
1767762163,6059.850851694743,11420351,84
1767762163,6067.7361488342285,11420358,84
1767762163,6071.582635243733,11420361,84
1767762163,6072.255770365397,11420367,84
1767762163,6071.6307163238525,11420375,84
1767762163,6070.621013641357,11420381,84
1767762163,6068.265040715535,11420380,84
1767762163,6062.062581380208,11420385,84
1767762163,6049.849987030029,11420389,84
1767762163,6031.57917658488,11420397,84
1767762163,6009.990771611531,11420399,84
1767762163,5990.18136660258,11420405,84
1767762163,5978.161096572876,11420409,84
1767762163,5977.247556050618,11420416,84
1767762163,5986.334880193074,11420418,84
1767762163,5999.941825866699,11420426,84
1767762163,6010.423501332601,11420427,84
1767762163,6012.6833120981855,11420429,84
1767762163,6006.1923662821455,11420441,84
1767762163,5995.758771896362,11420440,84
1767762163,5988.258123397827,11420447,84
1767762163,5988.498528798421,11420449,84
1767762163,5996.287663777669,11420453,84
1767762163,6005.5192311604815,11420459,84
1767762163,6007.730960845947,11420463,84
1767762163,5997.105042139689,11420466,84
1767762163,5976.334015528361,11420473,84
1767762163,5958.736340204875,11420470,84
1767762163,5964.121421178182,11420479,84
1767762163,6011.000474294026,11420479,84
1767762163,6105.287472407023,11420486,84
1767762163,6234.962145487468,11420484,84
1767762163,6369.589169820149,11420492,84
1767762163,6469.790140787761,11420495,84
1767762163,6499.456167221069,11420494,84
1767762163,6439.5952224731445,11420498,80
1767762163,6296.409765879313,11420502,80
1767762163,6101.296742757161,11420501,80
1767762163,5900.654395421346,11420505,80
1767762163,5740.64056078593,11420505,80
1767762163,5652.411778767903,11420509,80
1767762163,5643.661022186279,11420505,80
1767762163,5698.954264322917,11420508,80
1767762163,5788.240830103557,11420511,80
1767762163,5878.8736661275225,11420510,80
1767762163,5947.004556655884,11420510,80
1767762163,5983.017285664876,11420508,80
1767762163,5991.960366566976,11420511,80
1767762163,5987.248420715332,11420504,80
1767762163,5982.680718104045,11420511,80
1767762163,5986.238718032837,11420506,80
1767762163,5997.730096181233,11420502,80
1767762163,6011.625528335571,11420500,80
1767762163,6021.674474080403,11420499,80
1767762163,6024.030447006226,11420496,80
1767762163,6019.174257914226,11420494,80
1767762163,6011.240879694621,11420487,80
1767762163,6005.278825759888,11420484,80
1767762163,6004.749933878581,11420477,80
1767762163,6010.03885269165,11420473,80
1767762163,6018.453041712443,11420471,80
1767762163,6026.194095611572,11420464,80
1767762163,6030.954122543335,11420457,80
1767762163,6032.973527908325,11420451,80
1767762163,6034.223635991414,11420445,80
1767762163,6036.771933237712,11420441,80
1767762163,6041.339635848999,11420434,80
1767762163,6046.436230341594,11420423,80
1767762163,6049.321095148723,11420417,80
1767762163,6047.109365463257,11420410,80
1767762163,6038.599014282227,11420405,80
1767762163,6025.328636169434,11420393,80
1767762163,6011.865933736165,11420385,80
1767762163,6003.884474436442,11420380,80
1767762163,6006.38469060262,11420364,80
1767762163,6020.712852478027,11420359,80
1767762163,6044.4168249766035,11420349,80
1767762163,6071.678797403972,11420341,80
1767762163,6095.719337463379,11420331,80
1767762163,6110.720634460449,11420324,80
1767762163,6113.749742507935,11420314,80
1767762163,6105.479796727498,11420304,80
1767762163,6090.718905131022,11420296,80
1767762163,6076.294581095378,11420285,80
1767762163,6068.457365036011,11420277,80
1767762163,6070.717175801595,11420269,80
1767762163,6082.25663503011,11420259,80
1767762163,6098.556121190389,11420253,80
1767762163,6113.028526306152,11420244,80
1767762163,6119.471391042073,11420239,80
1767762163,6113.94206682841,11420230,80
1767762163,6096.825202306111,11420221,80
1767762163,6072.736581166585,11420214,80
1767762163,6049.369176228841,11420210,80
1767762163,6034.512122472127,11420200,80
1767762163,6032.588879267375,11420193,80
1767762163,6043.503284454346,11420193,80
1767762163,6062.110662460327,11420186,80
1767762163,6080.285310745239,11420181,80
1767762163,6090.0938510894775,11420179,80
1767762163,6086.151202519734,11420174,80
1767762163,6067.784229914348,11420168,80
1767762163,6039.320230484009,11420167,80
1767762163,6008.644501368205,11420164,80
1767762163,5983.738501866658,11420162,80
1767762163,5969.8911507924395,11420158,80
1767762163,5967.823664347331,11420162,80
1767762163,5974.362691243489,11420156,80
1767762163,5983.930826187134,11420155,80
1767762163,5991.431474685669,11420155,80
1767762163,5993.162393569946,11420158,80
1767762163,5988.787015279134,11420154,80
1767762163,5980.2766640981035,11420154,80
1767762163,5971.814393997192,11420159,80
1767762163,5966.717799504598,11420159,80
1767762163,5966.765880584717,11420160,80
1767762163,5971.573988596599,11420162,80
1767762163,5979.459285736084,11420165,80
1767762163,5988.642772038777,11420165,80
1767762163,5997.87433942159,11420167,80
1767762163,6006.432771682739,11420171,80
1767762163,6013.837258021037,11420175,80
1767762163,6019.991636276245,11420175,80
1767762163,6024.992068608602,11420179,80
1767762163,6028.694311777751,11420184,80
1767762163,6030.8098793029785,11420187,80
1767762163,6031.57917658488,11420189,80
1767762163,6031.57917658488,11420193,80
1767762163,6032.156149546306,11420196,80
1767762163,6033.98323059082,11420199,80
1767762163,6036.916176478068,11420206,80
1767762163,6039.368311564128,11420205,80
1767762163,6039.560635884603,11420212,80
1767762163,6036.531527837117,11420215,80
1767762163,6030.617554982503,11420219,80
1767762163,6023.3573118845625,11420220,80
1767762163,6017.539501190186,11420228,80
1767762163,6015.808582305908,11420229,80
1767762163,6019.79931195577,11420232,80
1767762163,6029.030879338582,11420239,80
1767762163,6040.810743967692,11420241,80
1767762163,6051.148176193237,11420243,80
1767762163,6056.72558148702,11420246,80
1767762163,6056.196689605713,11420252,80
1767762163,6050.523122151692,11420253,80
1767762163,6042.589743932088,11420256,80
1767762163,6035.425662994385,11420265,80
1767762163,6031.867663065593,11420264,80
1767762163,6032.540798187256,11420265,80
1767762163,6036.483446756999,11420270,80
1767762163,6040.858825047811,11420273,80
1767762163,6042.397419611613,11420279,80
1767762163,6038.983662923177,11420281,80
1767762163,6030.954122543335,11420283,80
1767762163,6020.568609237671,11420289,80
1767762163,6011.096636454265,11420292,80
1767762163,6005.8557987213135,11420296,80
1767762163,6006.913582483928,11420298,80
1767762163,6014.702717463176,11420299,80
1767762163,6027.49228477478,11420304,80
1767762163,6041.580041249593,11420307,80
1767762163,6052.686770757039,11420314,80
1767762163,6057.446797688802,11420319,80
1767762163,6054.610013961792,11420321,80
1767762163,6045.474608739217,11420325,80
1767762163,6033.117771148682,11420329,80
1767762163,6021.578311920166,11420332,80
1767762163,6014.12574450175,11420338,80
1767762163,6012.587149937947,11420342,80
1767762163,6016.57787958781,11420348,80
1767762163,6023.0207443237305,11420352,80
1767762163,6027.973095575969,11420355,80
1767762163,6028.165419896443,11420360,80
1767762163,6022.828420003255,11420371,80
1767762163,6013.596852620442,11420373,80
1767762163,6003.788312276204,11420381,80
1767762163,5996.624231338501,11420384,80
1767762163,5994.412501653035,11420390,80
1767762163,5997.537771860759,11420393,80
1767762163,6004.2210419972735,11420400,80
1767762163,6011.865933736165,11420407,80
1767762163,6017.635663350423,11420413,80
1767762163,6020.61669031779,11420418,80
1767762163,6021.578311920166,11420426,80
1767762163,6022.395690282186,11420430,80
1767762163,6024.511257807414,11420439,80
1767762163,6027.92501449585,11420445,80
1767762163,6031.386852264404,11420450,80
1767762163,6033.4062576293945,11420457,80
1767762163,6033.262014389038,11420462,80
1767762163,6031.194527943929,11420469,80
1767762163,6028.646230697632,11420476,80
1767762163,6027.780771255493,11420482,80
1767762163,6030.088663101196,11420488,80
1767762163,6035.6660683949785,11420497,80
1767762163,6042.7820682525635,11420501,80
1767762163,6048.840284347534,11420509,80
1767762163,6052.2059599558515,11420512,80
1767762163,6053.359905878703,11420521,80
1767762163,6054.1292031606035,11420523,80
1767762163,6056.72558148702,11420535,80
1767762163,6061.485608418782,11420540,80
1767762163,6066.822608311971,11420548,80
1767762163,6069.082419077556,11420550,80
1767762163,6064.707040786743,11420555,80
1767762164,6051.773230234782,11420559,80
1767762164,6031.57917658488,11420568,80
1767762164,6009.077231089274,11420575,80
1767762164,5990.56601524353,11420578,80
1767762164,5981.190204620361,11420585,80
1767762164,5981.959501902263,11420593,80
1767762164,5989.460150400798,11420596,80
1767762164,5997.633934020996,11420603,80
1767762164,6001.336177190145,11420606,80
1767762164,5998.69171778361,11420610,80
1767762164,5991.671880086263,11420615,80
1767762164,5984.700123469035,11420623,80
1767762164,5981.574853261312,11420625,80
1767762164,5983.257691065471,11420629,80
1767762164,5986.671447753906,11420633,80
1767762164,5986.959934234619,11420639,80
1767762164,5981.382528940837,11420644,80
1767762164,5973.833799362183,11420648,80
1767762164,5975.805123647054,11420652,80
1767762164,6002.682447433472,11420655,80
1767762164,6066.534121831258,11420662,80
1767762164,6167.937119801839,11420664,80
1767762164,6291.793982187907,11420666,80
1767762164,6408.4867636362715,11420671,80
1767762164,6481.95465405782,11420671,80
1767762164,6481.714248657227,11420675,77
1767762164,6394.831736882527,11420677,77
1767762164,6232.750415802002,11420681,77
1767762164,6030.040582021077,11420680,77
1767762164,5833.869775136312,11420680,77
1767762164,5689.09764289856,11420685,77
1767762164,5623.851617177327,11420684,77
1767762164,5642.026265462239,11420687,77
1767762164,5724.100669225057,11420689,77
1767762164,5835.360288619995,11420688,77
1767762164,5939.071178436279,11420691,77
1767762164,6008.548339207967,11420688,77
1767762164,6034.127473831177,11420690,77
1767762164,6023.501555124919,11420688,77
1767762164,5995.133717854817,11420687,77
1767762164,5968.9295291900635,11420683,77
1767762164,5958.2555294036865,11420686,77
1767762164,5966.429313023885,11420685,77
1767762164,5987.7292315165205,11420680,77
1767762164,6011.817852656047,11420678,77
1767762164,6029.030879338582,11420671,77
1767762164,6034.079392751058,11420668,77
1767762164,6027.636528015137,11420664,77
1767762164,6014.798879623413,11420662,77
1767762164,6002.153555552165,11420660,77
1767762164,5994.508663813273,11420649,77
1767762164,5993.739366531372,11420646,77
1767762164,5999.028285344441,11420639,77
1767762164,6008.40409596761,11420637,77
1767762164,6020.039717356364,11420626,77
1767762164,6032.540798187256,11420621,77
1767762164,6044.849554697673,11420614,77
1767762164,6055.812040964763,11420604,77
1767762164,6064.03390566508,11420597,77
1767762164,6068.168878555298,11420591,77
1767762164,6066.918770472209,11420583,77
1767762164,6059.9950949351,11420573,77
1767762164,6048.9364465077715,11420564,77
1767762164,6036.82001431783,11420559,77
1767762164,6027.155717213948,11420546,77
1767762164,6022.203365961711,11420539,77
1767762164,6022.395690282186,11420527,77
1767762164,6026.5787442525225,11420518,77
1767762164,6032.733122507731,11420511,77
1767762164,6039.2240683237715,11420499,77
1767762164,6045.7150141398115,11420494,77
1767762164,6052.734851837158,11420486,77
1767762164,6061.870257059733,11420476,77
1767762164,6074.563662211101,11420467,77
1767762164,6091.151634852092,11420456,77
1767762164,6110.095580418904,11420449,77
1767762164,6128.029823303223,11420437,77
1767762164,6141.636768976848,11420431,77
1767762164,6148.464282353719,11420425,77
1767762164,6147.791147232056,11420416,77
1767762164,6140.386660893758,11420408,77
1767762164,6127.789417902629,11420402,77
1767762164,6112.211147944133,11420391,77
1767762164,6095.28660774231,11420389,77
1767762164,6078.362067540486,11420383,77
1767762164,6062.158743540446,11420377,77
1767762164,6046.724716822307,11420371,77
1767762164,6032.252311706543,11420365,77
1767762164,6019.558906555176,11420363,77
1767762164,6009.365717569987,11420357,77
1767762164,6002.009312311809,11420350,77
1767762164,5996.960798899333,11420350,77
1767762164,5993.787447611491,11420342,77
1767762164,5992.20077196757,11420341,77
1767762164,5992.20077196757,11420336,77
1767762164,5994.268258412679,11420336,77
1767762164,5998.403231302897,11420334,77
1767762164,6004.701852798462,11420334,77
1767762164,6012.202501296997,11420331,77
1767762164,6019.703149795532,11420330,77
1767762164,6025.328636169434,11420332,77
1767762164,6027.203798294067,11420329,77
1767762164,6024.6555010477705,11420327,77
1767762164,6018.16455523173,11420324,77
1767762164,6009.461879730225,11420331,77
1767762164,6000.182231267293,11420331,77
1767762164,5991.527636845906,11420334,77
1767762164,5984.07506942749,11420334,77
1767762164,5975.468556086223,11420334,77
1767762164,5976.285934448242,11420337,77
1767762164,5982.199907302856,11420339,77
1767762164,5993.739366531372,11420343,77
1767762164,6010.231177012126,11420344,77
1767762164,6029.223203659058,11420345,77
1767762164,6045.955419540405,11420347,77
1767762164,6055.427392323812,11420348,77
1767762164,6054.225365320842,11420355,77
1767762164,6042.685906092326,11420354,77
1767762164,6025.328636169434,11420358,77
1767762164,6008.932987848918,11420359,77
1767762164,5999.941825866699,11420362,77
1767762164,6002.153555552165,11420362,77
1767762164,6014.654636383057,11420366,77
1767762164,6032.492717107137,11420368,77
1767762164,6048.119068145752,11420372,77
1767762164,6055.186986923218,11420372,77
1767762164,6051.5328248341875,11420378,77
1767762164,6040.1856899261475,11420377,77
1767762164,6028.117338816325,11420381,77
1767762164,6022.491852442424,11420384,77
1767762164,6026.819149653117,11420385,77
1767762164,6039.464473724365,11420385,77
1767762164,6054.369608561198,11420390,77
1767762164,6063.8415813446045,11420391,77
1767762164,6062.351067860921,11420394,77
1767762164,6048.792203267415,11420395,77
1767762164,5998.403231302897,11420396,77
1767762164,6001.14385286967,11420403,77
1767762164,6014.173825581868,11420405,77
1767762164,6030.136744181315,11420402,77
1767762164,6040.858825047811,11420403,77
1767762164,6041.195392608643,11420406,77
1767762164,6031.627257664998,11420408,77
1767762164,6017.683744430542,11420411,77
1767762164,6007.63479868571,11420408,77
1767762164,6008.211771647136,11420412,77
1767762164,6021.43406867981,11420415,77
1767762164,6043.070554733276,11420415,77
1767762164,6064.658959706624,11420416,77
1767762164,6077.688932418823,11420419,77
1767762164,6077.544689178467,11420416,77
1767762164,6065.4763380686445,11420424,77
1767762164,6047.39785194397,11420421,77
1767762164,6030.617554982503,11420423,77
1767762164,6020.280122756958,11420423,77
1767762164,6017.443339029948,11420425,77
1767762164,6018.885771433513,11420426,77
1767762164,6019.174257914226,11420430,77
1767762164,6013.9815012613935,11420431,77
1767762164,6002.922852834065,11420435,77
1767762164,5990.18136660258,11420435,77
1767762164,5985.1328531901045,11420439,77
1767762164,5999.50909614563,11420444,77
1767762164,6021.866798400879,11420445,77
1767762164,6045.234203338623,11420449,77
1767762164,6062.2068246205645,11420450,77
1767762164,6068.168878555298,11420455,77
1767762164,6062.687635421753,11420459,77
1767762164,6049.657662709554,11420457,77
1767762164,6035.089095433553,11420461,77
1767762164,6024.270852406819,11420465,77
1767762164,6019.030014673869,11420470,77
1767762164,6017.924149831136,11420472,77
1767762164,6017.34717686971,11420477,77
1767762164,6014.318068822225,11420479,77
1767762164,6008.163690567017,11420484,77
1767762164,6000.663042068481,11420486,77
1767762164,5994.700988133748,11420490,77
1767762164,5992.5854206085205,11420495,77
1767762164,5995.133717854817,11420496,77
1767762164,6000.855366388957,11420501,77
1767762164,6007.105906804402,11420507,77
1767762164,6011.288960774739,11420510,77
1767762164,6012.731393178304,11420516,77
1767762164,6013.596852620442,11420515,77
1767762164,6017.443339029948,11420524,77
1767762164,6027.299960454305,11420527,77
1767762164,6043.7436898549395,11420531,77
1767762164,6064.8032029469805,11420536,77
1767762164,6109.374364217122,11420548,77
1767762164,6105.9606075286865,11420554,77
1767762164,6092.353661855062,11420558,77
1767762164,6071.486473083496,11420559,77
1767762164,6047.39785194397,11420566,77
1767762164,6024.3189334869385,11420568,77
1767762164,6005.326906840007,11420573,77
1767762164,5992.489258448283,11420577,77
1767762164,5987.008015314738,11420581,77
1767762164,5988.113880157471,11420586,77
1767762164,5993.595123291016,11420593,77
1767762164,5999.653339385986,11420592,77
1767762164,6002.442042032878,11420597,77
1767762164,6000.182231267293,11420600,77
1767762164,5993.835528691609,11420605,77
1767762164,5987.777312596639,11420611,77
1767762164,5987.3926639556885,11420612,77
1767762164,5997.05696105957,11420616,77
1767762164,6017.010609308879,11420618,77
1767762164,6041.916608810425,11420620,77
1767762164,6061.533689498901,11420623,77
1767762164,6064.562797546387,11420630,77
1767762164,6044.609149297078,11420633,77
1767762164,6005.278825759888,11420633,77
1767762164,5961.284637451172,11420639,77
1767762164,5935.080448786418,11420639,77
1767762164,5948.2065836588545,11420645,77
1767762164,6012.923717498779,11420646,77
1767762164,6124.664147694905,11420647,77
1767762164,6260.82976659139,11420647,77
1767762164,6385.311683019002,11420652,77
1767762164,6459.548870722453,11420655,77
1767762164,6455.269654591878,11420657,74
1767762164,6365.069548288981,11420660,74
1767762164,6205.873092015584,11420658,74
1767762164,6013.885339101155,11420661,74
1767762164,5833.581288655599,11420661,74
1767762164,5704.147020975749,11420665,74
1767762164,5648.853778839111,11420661,74
1767762164,5668.903589248657,11420668,74
1767762164,5745.448668797811,11420661,74
1767762164,5847.620964050293,11420664,74
1767762164,5943.013827006022,11420667,74
1767762164,6008.644501368205,11420667,74
1767762164,6035.281419754028,11420662,74
1767762164,6028.165419896443,11420665,74
1767762164,6001.480420430501,11420662,74
1767762164,5972.102880477905,11420660,74
1767762164,5953.351259231567,11420658,74
1767762164,5951.331853866577,11420655,74
1767762164,5964.025259017944,11420655,74
1767762164,5984.026988347371,11420650,74
1767762164,6002.2977987925215,11420645,74
1767762164,6012.971798578898,11420643,74
1767762165,6014.6065553029375,11420642,74
1767762165,6010.327339172363,11420636,74
1767762165,6005.567312240601,11420630,74
1767762165,6005.759636561076,11420627,74
1767762165,6013.9815012613935,11420622,74
1767762165,6029.800176620483,11420615,74
1767762165,6049.513419469197,11420605,74
1767762165,6067.207256952922,11420598,74
1767762165,6077.496608098348,11420598,74
1767762165,6077.4485270182295,11420589,74
1767762165,6067.591905593872,11420584,74
1767762165,6051.292419433594,11420574,74
1767762165,6033.358176549275,11420565,74
1767762165,6018.453041712443,11420559,74
1767762165,6009.942690531413,11420550,74
1767762165,6009.269555409749,11420547,74
1767762165,6015.2796904246015,11420535,74
1767762165,6025.569041570027,11420522,74
1767762165,6037.012338638306,11420517,74
1767762165,6047.301689783732,11420508,74
1767762165,6055.427392323812,11420503,74
1767762165,6061.100959777832,11420496,74
1767762165,6064.8032029469805,11420480,74
1767762165,6067.014932632446,11420476,74
1767762165,6069.130500157674,11420465,74
1767762165,6072.54425684611,11420458,74
1767762165,6078.362067540486,11420449,74
1767762165,6086.920499801636,11420442,74
1767762165,6097.498337427775,11420431,74
1767762165,6108.460823694865,11420426,74
1767762165,6107.643445332845,11420396,74
1767762165,6089.949607849121,11420386,74
1767762165,6069.418986638387,11420377,74
1767762165,6050.5712032318115,11420373,74
1767762165,6036.868095397949,11420370,74
1767762165,6029.94441986084,11420361,74
1767762165,6029.223203659058,11420358,74
1767762165,6032.156149546306,11420348,74
1767762165,6035.377581914266,11420347,74
1767762165,6035.858392715454,11420341,74
1767762165,6032.011906305949,11420339,74
1767762165,6024.847825368245,11420333,74
1767762165,6016.722122828166,11420331,74
1767762165,6010.375420252482,11420332,74
1767762165,6007.202068964641,11420324,74
1767762165,6007.009744644165,11420326,74
1767762165,6008.596420288086,11420322,74
1767762165,6010.327339172363,11420322,74
1767762165,6010.808149973552,11420318,74
1767762165,6009.173393249512,11420322,74
1767762165,6005.807717641194,11420320,74
1767762165,6001.384258270264,11420320,74
1767762165,5996.720393498738,11420321,74
1767762165,5992.20077196757,11420324,74
1767762165,5987.248420715332,11420324,74
1767762165,5981.767177581787,11420326,74
1767762165,5976.285934448242,11420326,74
1767762165,5972.679853439331,11420332,74
1767762165,5973.208745320638,11420335,74
1767762165,5979.555447896321,11420333,74
1767762165,5991.6237990061445,11420337,74
1767762165,6007.538636525472,11420341,74
1767762165,6023.934284845988,11420344,74
1767762165,6037.012338638306,11420344,74
1767762165,6043.647527694702,11420350,74
1767762165,6042.878230412801,11420355,74
1767762165,6036.194960276286,11420355,74
1767762165,6027.203798294067,11420362,74
1767762165,6019.655068715413,11420366,74
1767762165,6015.423933664958,11420366,74
1767762165,6014.654636383057,11420374,74
1767762165,6015.664339065552,11420376,74
1767762165,6016.770203908284,11420382,74
1767762165,6016.770203908284,11420383,74
1767762165,6015.856663386027,11420386,74
1767762165,6015.520095825195,11420389,74
1767762165,6017.539501190186,11420389,74
1767762165,6022.972663243611,11420395,74
1767762165,6030.906041463216,11420397,74
1767762165,6038.550933202107,11420399,74
1767762165,6042.830149332683,11420399,74
1767762165,6042.253176371257,11420401,74
1767762165,6037.877798080444,11420405,74
1767762165,6033.310095469157,11420408,74
1767762165,6032.396554946899,11420407,74
1767762165,6037.733554840088,11420411,74
1767762165,6048.888365427653,11420409,74
1767762165,6061.918338139852,11420409,74
1767762165,6070.765256881714,11420410,74
1767762165,6069.226662317912,11420411,74
1767762165,6054.081122080485,11420412,74
1767762165,6027.155717213948,11420411,74
1767762165,5995.277961095174,11420408,74
1767762165,5967.727502187093,11420408,74
1767762165,5952.918529510498,11420409,74
1767762165,5955.3225835164385,11420411,74
1767762165,5973.978042602539,11420411,74
1767762165,6002.970933914185,11420405,74
1767762165,6033.021608988444,11420407,74
1767762165,6054.658095041911,11420405,74
1767762165,6061.677932739258,11420404,74
1767762165,6053.407986958821,11420402,74
1767762165,6034.41596031189,11420400,74
1767762165,6013.116041819255,11420399,74
1767762165,5998.403231302897,11420397,74
1767762165,5996.528069178264,11420398,74
1767762165,6009.702285130818,11420397,74
1767762165,6034.656365712483,11420392,74
1767762165,6063.793500264485,11420398,74
1767762165,6087.257067362468,11420389,74
1767762165,6096.200148264567,11420388,74
1767762165,6086.487770080566,11420385,74
1767762165,6059.658527374268,11420387,74
1767762165,6023.06882540385,11420386,74
1767762165,5986.9118531545,11420379,74
1767762165,5960.94806989034,11420384,74
1767762165,5951.4280160268145,11420379,74
1767762165,5959.169069925944,11420379,74
1767762165,5979.026556015015,11420378,74
1767762165,6002.393960952759,11420375,74
1767762165,6020.328203837077,11420373,74
1767762165,6027.49228477478,11420374,74
1767762165,6023.9823659261065,11420373,74
1767762165,6014.029582341512,11420372,74
1767762165,6004.076798756917,11420371,74
1767762165,5999.364852905273,11420371,74
1767762165,6002.057393391927,11420371,74
1767762165,6010.567744572957,11420369,74
1767762165,6021.00133895874,11420369,74
1767762165,6028.790473937988,11420370,74
1767762165,6031.531095504761,11420371,74
1767762165,6029.896338780721,11420370,74
1767762165,6027.011473973592,11420364,74
1767762165,6026.29025777181,11420368,74
1767762165,6029.415527979533,11420372,74
1767762165,6035.185257593791,11420368,74
1767762165,6040.858825047811,11420367,74
1767762165,6043.7436898549395,11420366,74
1767762165,6042.878230412801,11420371,74
1767762165,6039.27214940389,11420369,74
1767762165,6035.329500834147,11420373,74
1767762165,6033.59858194987,11420369,74
1767762165,6034.752527872722,11420371,74
1767762165,6037.060419718425,11420376,74
1767762165,6036.771933237712,11420372,74
1767762165,6030.569473902385,11420377,74
1767762165,6018.260717391968,11420376,74
1767762165,6003.451744715373,11420378,74
1767762165,5992.441177368164,11420381,74
1767762165,5990.614096323649,11420381,74
1767762165,6000.278393427531,11420379,74
1767762165,6018.741528193156,11420383,74
1767762165,6039.320230484009,11420390,74
1767762165,6053.984959920247,11420390,74
1767762165,6057.110230127971,11420393,74
1767762165,6047.926743825276,11420390,74
1767762165,6031.098365783691,11420394,74
1767762165,6014.414230982463,11420402,74
1767762165,6003.644069035848,11420400,74
1767762165,5999.701420466105,11420398,74
1767762165,5997.730096181233,11420404,74
1767762165,5990.373690923055,11420405,74
1767762165,5972.872177759807,11420406,74
1767762165,5947.96617825826,11420408,74
1767762165,5927.002827326457,11420410,74
1767762165,5927.579800287883,11420409,74
1767762165,5966.573556264241,11420411,74
1767762165,6051.677068074544,11420413,74
1767762165,6174.668471018474,11420413,74
1767762165,6310.3532791137695,11420413,74
1767762165,6422.526439030965,11420417,74
1767762165,6475.175221761067,11420415,74
1767762165,6445.124546686809,11420412,76
1767762165,6330.355008443196,11420411,76
1767762165,6152.2626876831055,11420410,76
1767762165,5949.745178222656,11420408,76
1767762165,5767.710208892822,11420406,76
1767762165,5643.709103266398,11420403,76
1767762165,5597.166617711385,11420398,76
1767762165,5624.668995539348,11420395,76
1767762165,5704.002777735393,11420390,76
1767762165,5803.626775741577,11420383,76
1767762165,5893.490314483643,11420378,76
1767762165,5954.264799753825,11420372,76
1767762165,5981.142123540242,11420367,76
1767762165,5981.622934341431,11420355,76
1767762165,5970.516204833984,11420349,76
1767762165,5962.58282661438,11420339,76
1767762165,5966.62163734436,11420328,76
1767762165,5983.017285664876,11420320,76
1767762165,6005.567312240601,11420306,76
1767762165,6026.049852371216,11420292,76
1767762165,6038.166284561157,11420282,76
1767762165,6040.618419647217,11420266,76
1767762165,6036.531527837117,11420252,76
1767762165,6031.242609024048,11420234,76
1767762165,6029.896338780721,11420220,76
1767762165,6034.3678792317705,11420206,76
1767762165,6042.7820682525635,11420191,76
1767762165,6050.042311350505,11420169,76
1767762165,6050.475041071574,11420153,76
1767762165,6041.1473115285235,11420136,76
1767762165,6023.3573118845625,11420119,76
1767762165,6001.816987991333,11420099,76
1767762165,5982.921123504639,11420080,76
1767762165,5972.199042638143,11420058,76
1767762165,5972.343285878499,11420037,76
1767762165,5982.87304242452,11420020,76
1767762165,6000.182231267293,11420001,76
1767762165,6019.270420074463,11419979,76
1767762165,6035.858392715454,11419959,76
1767762165,6047.686338424683,11419936,76
1767762165,6055.427392323812,11419919,76
1767762165,6061.389446258545,11419898,76
1767762165,6067.688067754109,11419878,76
1767762165,6075.332959493001,11419861,76
1767762165,6084.179878234863,11419838,76
1767762165,6092.83447265625,11419819,76
1767762165,6100.238958994548,11419804,76
1767762165,6105.191310246785,11419782,76
1767762165,6107.547283172607,11419763,76
1767762165,6107.739607493083,11419747,76
1767762165,6106.9222291310625,11419730,76
1767762165,6105.6240399678545,11419714,76
1767762165,6103.508472442627,11419698,76
1767762165,6099.4696617126465,11419683,76
1767762165,6093.026796976726,11419666,76
1767762165,6084.468364715576,11419652,76
1767762165,6075.236797332764,11419638,76
1767762165,6066.966851552327,11419626,76
1767762165,6060.764392217,11419616,76
1767762165,6057.062149047852,11419605,76
1767762165,6055.09082476298,11419592,76
1767762165,6053.552230199178,11419580,76
1767762165,6050.667365392049,11419571,76
1767762165,6045.618851979573,11419565,76
1767762165,6039.079825083415,11419556,76
1767762165,6033.0696900685625,11419546,76
1767762165,6030.088663101196,11419546,76
1767762165,6031.194527943929,11419538,76
1767762165,6035.521825154622,11419532,76
1767762165,6040.1856899261475,11419528,76
1767762165,6041.1473115285235,11419528,76
1767762165,6035.041014353435,11419522,76
1767762165,6019.79931195577,11419521,76
1767762166,5996.239582697551,11419517,76
1767762166,5941.0905838012695,11419514,76
1767762166,5921.088854471843,11419518,76
1767762166,5911.9053681691485,11419518,76
1767762166,5914.357503255208,11419517,76
1767762166,5926.473935445149,11419519,76
1767762166,5944.648583730062,11419523,76
1767762166,5964.60223197937,11419525,76
1767762166,5982.632637023926,11419531,76
1767762166,5996.528069178264,11419532,76
1767762166,6005.711555480957,11419536,76
1767762166,6011.288960774739,11419541,76
1767762166,6014.654636383057,11419542,76
1767762166,6016.96252822876,11419545,76
1767762166,6018.5972849528,11419551,76
1767762166,6019.79931195577,11419553,76
1767762166,6020.857095718384,11419562,76
1767762166,6022.203365961711,11419565,76
1767762166,6024.030447006226,11419573,76
1767762166,6025.905609130859,11419576,76
1767762166,6027.059555053711,11419580,76
1767762166,6026.771068572998,11419586,76
1767762166,6024.703582127889,11419592,76
1767762166,6020.905176798503,11419600,76
1767762166,6016.337474187215,11419605,76
1767762166,6027.49228477478,11419628,76
1767762166,6037.156581878662,11419631,76
1767762166,6043.166716893514,11419634,76
1767762166,6042.157014211019,11419642,76
1767762166,6033.454338709514,11419649,76
1767762166,6019.126176834106,11419650,76
1767762166,6004.36528523763,11419655,76
1767762166,5995.5183664957685,11419661,76
1767762166,5997.633934020996,11419667,76
1767762166,6012.154420216878,11419672,76
1767762166,6035.521825154622,11419673,76
1767762166,6060.043176015218,11419681,76
1767762166,6077.208121617635,11419684,76
1767762166,6080.958445866902,11419690,76
1767762166,6069.9959595998125,11419695,76
1767762166,6048.215230305989,11419700,76
1767762166,6023.0207443237305,11419700,76
1767762166,6002.874771753947,11419709,76
1767762166,5993.787447611491,11419716,76
1767762166,5996.912717819214,11419720,76
1767762166,6008.356014887492,11419722,76
1767762166,6020.7609335581465,11419730,76
1767762166,6027.059555053711,11419732,76
1767762166,6023.645798365275,11419736,76
1767762166,6011.240879694621,11419740,76
1767762166,5994.989474614461,11419746,76
1767762166,5981.286366780599,11419753,76
1767762166,5975.56471824646,11419759,76
1767762166,5979.988177617391,11419764,76
1767762166,5992.537339528401,11419773,76
1767762166,6007.682879765828,11419776,76
1767762166,6016.866366068522,11419797,76
1767762166,6006.38469060262,11419803,76
1767762166,5996.191501617432,11419808,76
1767762166,5991.2872314453125,11419818,76
1767762166,5994.172096252441,11419829,76
1767762166,6004.36528523763,11419835,76
1767762166,6018.356879552205,11419845,76
1767762166,6031.1464468638105,11419853,76
1767762166,6038.791338602702,11419860,76
1767762166,6039.849122365315,11419866,76
1767762166,6036.291122436523,11419876,76
1767762166,6032.204230626424,11419889,76
1767762166,6031.338771184285,11419897,76
1767762166,6035.425662994385,11419906,76
1767762166,6043.695608774821,11419915,76
1767762166,6053.1675815582275,11419923,76
1767762166,6060.091257095337,11419933,76
1767762166,6061.677932739258,11419949,76
1767762166,6056.773662567139,11419958,76
1767762166,6046.9651222229,11419970,76
1767762166,6035.281419754028,11419980,76
1767762166,6024.6555010477705,11419994,76
1767762166,6016.2413120269775,11420004,76
1767762166,6009.221474329631,11420010,76
1767762166,6002.201636632283,11420022,76
1767762166,5994.268258412679,11420039,76
1767762166,5986.1425558726,11420043,76
1767762166,5979.843934377034,11420055,76
1767762166,5977.0552317301435,11420067,76
1767762166,5978.113015492757,11420078,76
1767762166,5980.949799219768,11420088,76
1767762166,5981.911420822144,11420101,76
1767762166,5977.487961451213,11420110,76
1767762166,5967.2947724660235,11420120,76
1767762166,5957.2939078013105,11420128,76
1767762166,5958.880583445231,11420138,76
1767762166,5985.950231552124,11420146,76
1767762166,6047.926743825276,11420155,76
1767762166,6144.473552703857,11420166,76
1767762166,6261.839469273885,11420168,76
1767762166,6374.637683232625,11420179,76
1767762166,6451.855897903442,11420184,76
1767762166,6466.280221939087,11420192,76
1767762166,6403.822898864746,11420190,84
1767762166,6269.8690096537275,11420196,84
1767762166,6089.036067326863,11420199,84
1767762166,5898.154179255168,11420202,84
1767762166,5735.784371693929,11420208,84
1767762166,5630.775292714437,11420204,84
1767762166,5595.33953666687,11420209,84
1767762166,5623.75545501709,11420206,84
1767762166,5695.97323735555,11420206,84
1767762166,5785.500208536784,11420205,84
1767762166,5868.103504180908,11420205,84
1767762166,5928.4452597300215,11420199,84
1767762166,5962.534745534261,11420195,84
1767762166,5975.660880406697,11420191,84
1767762166,5977.824529012044,11420186,84
1767762166,5978.545745213826,11420177,84
1767762166,5984.219312667847,11420171,84
1767762166,5996.8165556589765,11420162,84
1767762166,6014.558474222819,11420155,84
1767762166,6033.550500869751,11420147,84
1767762166,6049.465338389079,11420136,84
1767762166,6059.418121973674,11420122,84
1767762166,6062.110662460327,11420112,84
1767762166,6057.92760848999,11420102,84
1767762166,6048.070987065633,11420090,84
1767762166,6034.319798151652,11420074,84
1767762166,6018.933852513631,11420059,84
1767762166,6004.749933878581,11420048,84
1767762166,5994.412501653035,11420037,84
1767762166,5989.556312561035,11420017,84
1767762166,5990.229447682698,11420002,84
1767762166,5995.229880015056,11419989,84
1767762166,6002.586285273234,11419970,84
1767762166,6010.615825653076,11419957,84
1767762166,6017.876068751018,11419936,84
1767762166,6024.030447006226,11419920,84
1767762166,6030.136744181315,11419905,84
1767762166,6037.589311599731,11419890,84
1767762166,6047.494014104207,11419875,84
1767762166,6059.706608454387,11419858,84
1767762166,6072.255770365397,11419836,84
1767762166,6082.929770151774,11419822,84
1767762166,6089.853445688884,11419801,84
1767762166,6092.497905095418,11419788,84
1767762166,6091.776688893636,11419771,84
1767762166,6089.1322294871015,11419756,84
1767762166,6086.680094401042,11419739,84
1767762166,6086.055040359497,11419723,84
1767762166,6087.593634923299,11419709,84
1767762166,6090.478499730428,11419690,84
1767762166,6092.978715896606,11419678,84
1767762166,6094.084580739339,11419661,84
1767762166,6093.603769938151,11419651,84
1767762166,6093.2191212972,11419639,84
1767762166,6094.276905059814,11419622,84
1767762166,6097.546418507894,11419611,84
1767762166,6102.017958958943,11419597,84
1767762166,6105.43171564738,11419588,84
1767762166,6104.758580525716,11419574,84
1767762166,6097.402175267537,11419564,84
1767762166,6082.448959350586,11419554,84
1767762166,6062.158743540446,11419542,84
1767762166,6041.243473688762,11419539,84
1767762166,6025.424798329671,11419531,84
1767762166,6018.645366032918,11419520,84
1767762166,6021.145582199097,11419515,84
1767762166,6029.319365819295,11419510,84
1767762166,6036.723852157593,11419502,84
1767762166,6036.771933237712,11419495,84
1767762166,6024.992068608602,11419489,84
1767762166,6001.240015029907,11419488,84
1767762166,5970.323880513509,11419482,84
1767762166,5940.417448679606,11419478,84
1767762166,5920.319557189941,11419477,84
1767762166,5915.559530258179,11419473,84
1767762166,5926.522016525269,11419466,84
1767762166,5948.735475540161,11419469,84
1767762166,5974.603096644084,11419468,84
1767762166,5996.431907018025,11419464,84
1767762166,6008.500258127849,11419466,84
1767762166,6009.269555409749,11419460,84
1767762166,6001.047690709432,11419461,84
1767762166,5989.315907160441,11419460,84
1767762166,5979.892015457153,11419462,84
1767762166,5976.814826329549,11419464,84
1767762166,5981.045961380005,11419462,84
1767762166,5991.142988204956,11419461,84
1767762166,6003.692150115967,11419463,84
1767762166,6015.375852584839,11419465,84
1767762166,6023.06882540385,11419462,84
1767762166,6024.895906448364,11419463,84
1767762166,6020.712852478027,11419463,84
1767762166,6012.10633913676,11419465,84
1767762166,6001.768906911214,11419467,84
1767762166,5992.825826009114,11419464,84
1767762166,5987.969636917114,11419465,84
1767762166,5989.123582839966,11419467,84
1767762166,5997.201204299927,11419467,84
1767762166,6011.000474294026,11419467,84
1767762166,6027.780771255493,11419469,84
1767762166,6043.214797973633,11419468,84
1767762166,6053.359905878703,11419469,84
1767762166,6056.052446365356,11419468,84
1767762166,6051.5328248341875,11419465,84
1767762166,6042.349338531494,11419470,84
1767762166,6031.96382522583,11419466,84
1767762166,6024.222771326701,11419468,84
1767762166,6021.482149759929,11419468,84
1767762166,6024.030447006226,11419465,84
1767762166,6029.655933380127,11419465,84
1767762166,6034.512122472127,11419463,84
1767762166,6035.329500834147,11419463,84
1767762166,6030.954122543335,11419464,84
1767762166,6022.780338923137,11419461,84
1767762166,6014.029582341512,11419465,84
1767762166,6008.163690567017,11419459,84
1767762166,6007.923285166423,11419457,84
1767762166,6013.6449337005615,11419452,84
1767762166,6023.309230804443,11419454,84
1767762166,6032.877365748088,11419454,84
1767762166,6037.829717000325,11419452,84
1767762166,6035.281419754028,11419448,84
1767762166,6025.376717249553,11419450,84
1767762166,6011.481285095215,11419445,84
1767762166,5998.451312383016,11419444,84
1767762166,5990.56601524353,11419443,84
1767762166,5990.277528762817,11419441,84
1767762166,5997.008879979451,11419439,84
1767762166,6007.538636525472,11419439,84
1767762166,6016.96252822876,11419437,84
1767762166,6021.00133895874,11419439,84
1767762166,6017.827987670898,11419437,84
1767762166,6008.981068929036,11419438,84
1767762166,5998.835961023967,11419434,84
1767762166,5992.441177368164,11419434,84
1767762166,5993.210474650065,11419433,84
1767762166,6001.865069071452,11419434,84
1767762166,6015.9047444661455,11419436,84
1767762166,6031.242609024048,11419435,84
1767762166,6042.92631149292,11419435,84
1767762166,6047.590176264445,11419439,84
1767762166,6044.272581736247,11419438,84
1767762166,6035.329500834147,11419440,84
1767762166,6025.040149688721,11419441,84
1767762166,6017.683744430542,11419443,84
1767762166,6015.9047444661455,11419446,84
1767762166,6020.328203837077,11419446,84
1767762166,6029.271284739177,11419451,84
1767762166,6039.656798044841,11419453,84
1767762167,6047.830581665039,11419456,84
1767762167,6050.523122151692,11419458,84
1767762167,6046.291987101237,11419463,84
1767762167,6036.194960276286,11419466,84
1767762167,6023.549636205037,11419473,84
1767762167,6012.779474258423,11419471,84
1767762167,6007.394393285115,11419478,84
1767762167,6009.509960810344,11419483,84
1767762167,6018.116474151611,11419490,84
1767762167,6029.319365819295,11419494,84
1767762167,6037.445068359375,11419499,84
1767762167,6037.204662958781,11419509,84
1767762167,6026.194095611572,11419512,84
1767762167,6007.105906804402,11419516,84
1767762167,5987.0560963948565,11419523,84
1767762167,5974.074204762776,11419530,84
1767762167,5973.304907480876,11419535,84
1767762167,5984.026988347371,11419544,84
1767762167,5998.980204264323,11419546,84
1767762167,6007.538636525472,11419556,84
1767762167,6000.470717748006,11419560,84
1767762167,5976.237853368123,11419568,84
1767762167,5944.408178329468,11419575,84
1767762167,5924.983421961467,11419581,84
1767762167,5940.609773000081,11419588,84
1767762167,6006.961663564046,11419596,84
1767762167,6123.077472050984,11419599,84
1767762167,6267.561117808024,11419611,84
1767762167,6403.438250223796,11419616,84
1767762167,6488.4936809539795,11419622,84
1767762167,6490.176518758138,11419627,84
1767762167,6397.764682769775,11419636,83
1767762167,6227.798064549764,11419642,83
1767762167,6020.232041676839,11419649,83
1767762167,5825.1190185546875,11419655,83
1767762167,5686.501264572144,11419659,83
1767762167,5627.938508987427,11419665,83
1767762167,5647.651751836141,11419667,83
1767762167,5721.55237197876,11419674,83
1767762167,5814.733505249023,11419677,83
1767762167,5894.788503646851,11419676,83
1767762167,5942.244529724121,11419681,83
1767762167,5955.370664596558,11419687,83
1767762167,5947.004556655884,11419690,83
1767762167,5935.8016649882,11419691,83
1767762167,5937.436421712239,11419693,83
1767762167,5957.486232121785,11419696,83
1767762167,5991.2872314453125,11419693,83
1767762167,6027.780771255493,11419693,83
1767762167,6055.379311243693,11419695,83
1767762167,6067.351500193278,11419694,83
1767762167,6063.553094863892,11419692,83
1767762167,6049.561500549316,11419691,83
1767762167,6033.310095469157,11419684,83
1767762167,6021.00133895874,11419681,83
1767762167,6014.846960703532,11419678,83
1767762167,6013.164122899373,11419675,83
1767762167,6012.394825617473,11419667,83
1767762167,6010.135014851888,11419659,83
1767762167,6006.528933842977,11419658,83
1767762167,6003.644069035848,11419652,83
1767762167,6003.788312276204,11419642,83
1767762167,6007.730960845947,11419632,83
1767762167,6014.414230982463,11419624,83
1767762167,6020.905176798503,11419619,83
1767762167,6024.030447006226,11419606,83
1767762167,6022.107203801473,11419598,83
1767762167,6016.385555267334,11419585,83
1767762167,6011.0485553741455,11419575,83
1767762167,6011.192798614502,11419562,83
1767762167,6020.472447077434,11419554,83
1767762167,6039.031744003296,11419542,83
1767762167,6063.360770543416,11419530,83
1767762167,6087.882121404012,11419515,83
1767762167,6106.9222291310625,11419505,83
1767762167,6116.9711748758955,11419491,83
1767762167,6117.067337036133,11419484,83
1767762167,6109.759012858073,11419472,83
1767762167,6098.94076983134,11419458,83
1767762167,6088.74758084615,11419450,83
1767762167,6072.54425684611,11419413,83
1767762167,6068.601608276367,11419402,83
1767762167,6064.658959706624,11419391,83
1767762167,6061.918338139852,11419382,83
1767762167,6062.110662460327,11419373,83
1767762167,6066.1013921101885,11419361,83
1767762167,6073.505878448486,11419351,83
1767762167,6082.208553949992,11419344,83
1767762167,6088.987986246745,11419334,83
1767762167,6090.574661890666,11419328,83
1767762167,6085.478067398071,11419320,83
1767762167,6074.659824371338,11419315,83
1767762167,6060.9086354573565,11419309,83
1767762167,6047.39785194397,11419306,83
1767762167,6035.762230555217,11419299,83
1767762167,6025.85752805074,11419294,83
1767762167,6016.048987706502,11419289,83
1767762167,6004.461447397868,11419286,83
1767762167,5990.229447682698,11419281,83
1767762167,5973.7857182820635,11419281,83
1767762167,5957.534313201904,11419276,83
1767762167,5944.792826970418,11419279,83
1767762167,5938.25380007426,11419280,83
1767762167,5938.686529795329,11419275,83
1767762167,5944.504340489705,11419274,83
1767762167,5953.207015991211,11419271,83
1767762167,5962.630907694499,11419275,83
1767762167,5972.295204798381,11419278,83
1767762167,5983.113447825114,11419277,83
1767762167,5996.239582697551,11419280,83
1767762167,6011.817852656047,11419281,83
1767762167,6028.261582056682,11419284,83
1767762167,6042.205095291138,11419289,83
1767762167,6049.465338389079,11419290,83
1767762167,6046.868960062663,11419293,83
1767762167,6034.079392751058,11419292,83
1767762167,6014.462312062581,11419298,83
1767762167,5993.787447611491,11419303,83
1767762167,5978.113015492757,11419305,83
1767762167,5970.948934555054,11419308,83
1767762167,5972.150961558024,11419311,83
1767762167,5978.786150614421,11419320,83
1767762167,5986.671447753906,11419324,83
1767762167,5992.873907089233,11419327,83
1767762167,5996.8165556589765,11419331,83
1767762167,6000.807285308838,11419334,83
1767762167,6008.644501368205,11419336,83
1767762167,6023.309230804443,11419343,83
1767762167,6044.464906056722,11419345,83
1767762167,6067.688067754109,11419349,83
1767762167,6086.247364679973,11419351,83
1767762167,6094.132661819458,11419358,83
1767762167,6088.507175445557,11419359,83
1767762167,6071.34222984314,11419364,83
1767762167,6048.167149225871,11419363,83
1767762167,6026.194095611572,11419366,83
1767762167,6011.433204015096,11419373,83
1767762167,6006.240447362264,11419375,83
1767762167,6008.596420288086,11419373,83
1767762167,6013.3083661397295,11419376,83
1767762167,6014.798879623413,11419381,83
1767762167,6010.279258092244,11419383,83
1767762167,6000.999609629313,11419383,83
1767762167,5991.6237990061445,11419387,83
1767762167,5987.296501795451,11419391,83
1767762167,5991.768042246501,11419388,83
1767762167,6005.18266359965,11419393,83
1767762167,6023.934284845988,11419399,83
1767762167,6042.1089331309,11419394,83
1767762167,6053.792635599772,11419399,83
1767762167,6055.619716644287,11419399,83
1767762167,6048.070987065633,11419399,83
1767762167,6035.377581914266,11419404,83
1767762167,6023.0207443237305,11419406,83
1767762167,6015.135447184245,11419408,83
1767762167,6013.212203979492,11419410,83
1767762167,6015.664339065552,11419411,83
1767762167,6019.318501154582,11419412,83
1767762167,6020.7609335581465,11419415,83
1767762167,6017.731825510661,11419417,83
1767762167,6010.519663492839,11419420,83
1767762167,6001.720825831096,11419422,83
1767762167,5994.941393534343,11419420,83
1767762167,5992.873907089233,11419426,83
1767762167,5996.239582697551,11419425,83
1767762167,6003.644069035848,11419425,83
1767762167,6012.635231018066,11419430,83
1767762167,6020.7609335581465,11419434,83
1767762167,6026.674906412761,11419439,83
1767762167,6029.752095540364,11419438,83
1767762167,6030.569473902385,11419440,83
1767762167,6030.136744181315,11419445,83
1767762167,6029.655933380127,11419446,83
1767762167,6029.607852300008,11419449,83
1767762167,6030.040582021077,11419456,83
1767762167,6031.1464468638105,11419458,83
1767762167,6033.550500869751,11419462,83
1767762167,6038.118203481038,11419467,83
1767762167,6045.138041178386,11419470,83
1767762167,6053.407986958821,11419476,83
1767762167,6060.2835814158125,11419477,83
1767762167,6062.78379758199,11419484,83
1767762167,6058.6488246917725,11419488,83
1767762167,6047.494014104207,11419493,83
1767762167,6031.338771184285,11419497,83
1767762167,6013.933420181274,11419500,83
1767762167,5999.845663706462,11419510,83
1767762167,5992.2488530476885,11419512,83
1767762167,5991.6237990061445,11419519,83
1767762167,5995.1817989349365,11419524,83
1767762167,5998.7397988637285,11419528,83
1767762167,5999.028285344441,11419534,83
1767762167,5995.806852976481,11419539,83
1767762167,5991.527636845906,11419544,83
1767762167,5989.9890422821045,11419553,83
1767762167,5993.40279897054,11419558,83
1767762167,6000.807285308838,11419565,83
1767762167,6007.442474365234,11419569,83
1767762167,6006.625096003215,11419573,83
1767762167,5994.027853012085,11419580,83
1767762167,5971.47782643636,11419585,83
1767762167,5949.649016062419,11419591,83
1767762167,5945.321718851726,11419596,83
1767762167,5975.372393925984,11419597,83
1767762167,6048.59987894694,11419604,83
1767762167,6159.234444300334,11419611,83
1767762167,6285.831928253174,11419616,83
1767762167,6395.889520645142,11419622,83
1767762167,6455.317735671997,11419627,83
1767762167,6439.883708953857,11419634,83
1767762167,6344.6831703186035,11419638,83
1767762167,6187.169551849365,11419641,83
1767762167,6002.393960952759,11419644,83
1767762167,5831.89845085144,11419650,83
1767762167,5710.830291112264,11419654,83
1767762167,5657.84494082133,11419657,83
1767762167,5671.548048655192,11419661,83
1767762167,5733.476479848226,11419668,83
1767762167,5816.656748453776,11419671,83
1767762167,5894.692341486613,11419667,83
1767762167,5950.225989023845,11419672,83
1767762167,5978.3534208933515,11419671,83
1767762167,5984.700123469035,11419675,83
1767762167,5980.42090733846,11419675,83
1767762167,5975.997447967529,11419674,83
1767762167,5977.487961451213,11419674,83
1767762167,5985.902150472005,11419675,83
1767762167,5998.547474543254,11419676,83
1767762167,6011.3851229349775,11419675,83
1767762167,6020.857095718384,11419675,83
1767762167,6025.713284810384,11419672,83
1767762167,6026.5787442525225,11419671,83
1767762167,6025.424798329671,11419667,83
1767762167,6023.9823659261065,11419667,83
1767762167,6023.213068644206,11419666,83
1767762167,6023.164987564087,11419657,83
1767762167,6023.693879445394,11419656,83
1767762167,6024.559338887532,11419649,83
1767762167,6025.136311848958,11419642,83
1767762167,6024.415095647176,11419639,83
1767762167,6021.097501118978,11419635,83
1767762167,6014.654636383057,11419628,83
1767762167,6006.240447362264,11419620,83
1767762167,5998.210906982422,11419614,83
1767762167,5994.2201773325605,11419607,83
1767762167,5997.249285380046,11419601,83
1767762167,6009.029150009155,11419593,83
1767762168,6028.790473937988,11419585,83
1767762168,6052.782932917277,11419577,83
1767762168,6075.38104057312,11419565,83
1767762168,6090.718905131022,11419558,83
1767762168,6095.67125638326,11419549,83
1767762168,6090.863148371379,11419539,83
1767762168,6079.900662104289,11419532,83
1767762168,6068.024635314941,11419522,83
1767762168,6059.754689534505,11419515,83
1767762168,6058.168013890584,11419503,83
1767762168,6063.408851623535,11419495,83
1767762168,6073.313554128011,11419487,83
1767762168,6084.227959314982,11419477,83
1767762168,6092.786391576131,11419468,83
1767762168,6097.017526626587,11419458,83
1767762168,6096.825202306111,11419449,83
1767762168,6093.507607777913,11419440,83
1767762168,6088.411013285319,11419430,83
1767762168,6082.833607991536,11419423,83
1767762168,6077.640851338704,11419417,83
1767762168,6073.505878448486,11419410,83
1767762168,6070.52485148112,11419401,83
1767762168,6067.976554234822,11419393,83
1767762168,6064.41855430603,11419386,83
1767762168,6058.31225713094,11419380,83
1767762168,6048.503716786702,11419375,83
1767762168,6034.560203552246,11419367,83
1767762168,6017.2029336293535,11419363,83
1767762168,5998.835961023967,11419357,83
1767762168,5982.921123504639,11419354,83
1767762168,5973.1606642405195,11419351,83
1767762168,5971.718231836955,11419345,83
1767762168,5978.064934412639,11419338,83
1767762168,5988.93125851949,11419338,83
1767762168,5999.797582626343,11419333,83
1767762168,6006.673177083333,11419331,83
1767762168,6007.394393285115,11419332,83
1767762168,6002.730528513591,11419328,83
1767762168,5995.374123255412,11419329,83
1767762168,5989.460150400798,11419327,83
1767762168,5988.450447718303,11419327,83
1767762168,5993.354717890422,11419326,83
1767762168,6002.249717712402,11419324,83
1767762168,6010.952393213908,11419325,83
1767762168,6015.32777150472,11419327,83
1767762168,6013.164122899373,11419329,83
1767762168,6004.653771718343,11419329,83
1767762168,5992.777744928996,11419333,83
1767762168,5981.334447860718,11419333,83
1767762168,5974.4588534037275,11419333,83
1767762168,5974.891583124797,11419339,83
