timestamp,Channel 1,Channel 2,Channel 3
1767763097,6431.181033452352,11761737,68
1767763097,6416.372060775757,11761736,68
1767763097,6412.621736526489,11761732,68
1767763097,6417.814493179321,11761735,68
1767763097,6426.997979482015,11761727,68
1767763097,6434.594790140788,11761719,68
1767763098,6437.431573867798,11761716,68
1767763098,6435.267925262451,11761711,68
1767763098,6430.267492930095,11761702,68
1767763098,6424.690087636312,11761694,68
1767763098,6420.026222864787,11761688,68
1767763098,6415.795087814331,11761682,68
1767763098,6410.4100068410235,11761671,68
1767763098,6402.572790781657,11761664,68
1767763098,6392.139196395874,11761654,68
1767763098,6380.743980407715,11761644,68
1767763098,6370.935440063477,11761631,68
1767763098,6365.502278010051,11761624,68
1767763098,6365.790764490764,11761608,68
1767763098,6371.512413024902,11761597,68
1767763098,6380.551656087239,11761586,68
1767763098,6390.0236288706465,11761576,68
1767763098,6397.428115208943,11761561,68
1767763098,6401.418844858806,11761546,68
1767763098,6402.572790781657,11761536,68
1767763098,6402.909358342488,11761519,68
1767763098,6404.9287637074785,11761510,68
1767763098,6410.650412241618,11761490,68
1767763098,6420.69935798645,11761480,68
1767763098,6433.921655019124,11761466,68
1767763098,6447.384357452393,11761448,68
1767763098,6457.914113998413,11761438,68
1767763098,6462.674140930176,11761422,68
1767763098,6461.183627446492,11761409,68
1767763098,6455.365816752116,11761396,68
1767763098,6449.451843897502,11761382,68
1767763098,6448.586384455363,11761371,68
1767763098,6456.615924835205,11761360,68
1767763098,6474.69441095988,11761340,68
1767763098,6500.321626663208,11761330,68
1767763098,6527.872085571289,11761320,68
1767763098,6550.902922948201,11761308,68
1767763098,6564.077138900757,11761298,68
1767763098,6565.663814544678,11761287,68
1767763098,6558.211247126262,11761277,68
1767763098,6546.8160311381025,11761268,68
1767763098,6537.632544835408,11761261,68
1767763098,6534.747680028279,11761252,68
1767763098,6538.449923197429,11761247,68
1767763098,6545.5178419748945,11761237,68
1767763098,6550.854841868083,11761231,68
1767763098,6549.74897702535,11761228,68
1767763098,6540.277004241943,11761222,68
1767763098,6524.362166722615,11761217,68
1767763098,6506.812572479248,11761214,68
1767763098,6493.109464645386,11761211,68
1767763098,6486.955086390178,11761210,68
1767763098,6488.87832959493,11761210,68
1767763098,6496.2828159332275,11761213,68
1767763098,6504.648923873901,11761210,68
1767763098,6509.8897616068525,11761210,68
1767763098,6510.082085927327,11761209,68
1767763098,6505.6586265563965,11761214,68
1767763098,6498.927275339763,11761219,68
1767763098,6492.195924123128,11761220,68
1767763098,6486.522356669108,11761222,68
1767763098,6480.896870295207,11761229,68
1767763098,6473.5885461171465,11761233,68
1767763098,6463.106870651245,11761239,68
1767763098,6450.076897939046,11761243,68
1767763098,6437.575817108154,11761250,68
1767763098,6429.402033487956,11761257,68
1767763098,6428.921222686768,11761263,68
1767763098,6436.566114425659,11761272,68
1767763098,6449.163357416789,11761281,68
1767763098,6461.039384206136,11761284,68
1767763098,6465.895573298137,11761292,68
1767763098,6459.64503288269,11761298,68
1767763098,6442.432006200154,11761306,68
1767763098,6418.824195861816,11761316,68
1767763098,6396.081844965617,11761326,68
1767763098,6380.984385808309,11761333,68
1767763098,6377.570629119873,11761338,68
1767763098,6385.5040073394775,11761348,68
1767763098,6400.505304336548,11761358,68
1767763098,6416.468222935994,11761362,68
1767763098,6427.863438924153,11761369,68
1767763098,6432.094573974609,11761378,68
1767763098,6429.882844289144,11761386,68
1767763098,6424.834330876668,11761392,68
1767763098,6421.035925547282,11761403,68
1767763098,6421.660979588826,11761407,68
1767763098,6427.334547042847,11761414,68
1767763098,6436.51803334554,11761420,68
1767763098,6446.422735850017,11761431,68
1767763098,6454.692681630452,11761435,68
1767763098,6459.548870722453,11761438,68
1767763098,6461.424032847087,11761446,68
1767763098,6461.904843648274,11761452,68
1767763098,6462.818384170532,11761459,68
1767763098,6465.75133005778,11761458,68
1767763098,6471.4248975118,11761463,68
1767763098,6479.358275731404,11761466,68
1767763098,6488.589843114217,11761474,68
1767763098,6497.484842936198,11761474,68
1767763098,6504.6970049540205,11761477,68
1767763098,6508.928140004476,11761478,68
1767763098,6509.5531940460205,11761484,68
1767763098,6506.764491399129,11761484,68
1767763098,6501.571734746297,11761489,68
1767763098,6495.802005132039,11761489,68
1767763098,6491.667032241821,11761493,68
1767763098,6490.849653879802,11761492,68
1767763098,6494.311491648356,11761494,68
1767763098,6501.523653666179,11761494,68
1767763098,6511.043707529704,11761500,68
1767763098,6520.371437072754,11761500,68
1767763098,6527.0547072092695,11761501,68
1767763098,6529.410680135091,11761504,68
1767763098,6526.862382888794,11761501,68
1767763098,6520.034869511922,11761504,68
1767763098,6510.37057240804,11761500,68
1767763098,6499.40808614095,11761505,68
1767763098,6488.974491755168,11761505,68
1767763098,6480.512221654256,11761506,68
1767763098,6474.790573120117,11761509,68
1767763098,6472.146113713582,11761512,68
1767763098,6472.001870473226,11761512,68
1767763098,6472.915410995483,11761511,68
1767763098,6472.867329915364,11761513,68
1767763098,6469.886302947998,11761514,68
1767763098,6462.770303090413,11761519,68
1767763098,6451.711654663086,11761520,68
1767763098,6438.681681950887,11761521,68
1767763098,6426.9498984018965,11761523,68
1767763098,6419.689655303955,11761525,68
1767763098,6418.920358022054,11761529,68
1767763098,6424.257357915242,11761536,68
1767763098,6433.248519897461,11761536,68
1767763098,6441.903114318848,11761542,68
1767763098,6447.09587097168,11761543,68
1767763098,6447.143952051799,11761550,68
1767763098,6442.720492680867,11761554,68
1767763098,6436.710357666016,11761558,68
1767763098,6432.190736134847,11761559,68
1767763098,6431.132952372233,11761567,68
1767763098,6433.4408442179365,11761569,68
1767763098,6437.095006306966,11761572,68
1767763098,6439.2586549123125,11761580,68
1767763098,6437.9604657491045,11761587,68
1767763098,6433.537006378174,11761588,68
1767763098,6427.959601084392,11761596,68
1767763098,6424.642006556193,11761603,68
1767763098,6426.421006520589,11761603,68
1767763098,6434.787114461263,11761612,68
1767763098,6448.778708775838,11761618,68
1767763098,6466.087897618611,11761622,68
1767763098,6483.493248621623,11761625,68
1767763098,6498.446464538574,11761629,68
1767763098,6508.976221084595,11761637,68
1767763098,6514.217058817546,11761642,68
1767763098,6513.543923695882,11761648,68
1767763098,6506.668329238892,11761655,68
1767763098,6494.407653808594,11761658,68
1767763098,6478.540897369385,11761660,68
1767763098,6462.577978769938,11761670,68
1767763098,6450.942357381185,11761673,68
1767763098,6447.240114212036,11761678,68
1767763098,6452.673276265462,11761686,68
1767763098,6464.789708455403,11761684,68
1767763098,6477.53119468689,11761687,68
1767763098,6484.02214050293,11761698,68
1767763098,6479.16595141093,11761696,68
1767763098,6462.91454633077,11761701,68
1767763098,6440.508762995402,11761704,68
1767763098,6420.69935798645,11761711,68
1767763098,6411.852439244588,11761711,68
1767763098,6417.429844538371,11761713,68
1767763098,6434.0658982594805,11761718,68
1767763098,6452.673276265462,11761720,68
1767763098,6463.058789571126,11761721,68
1767763098,6459.837357203166,11761723,68
1767763098,6445.990006128947,11761728,68
1767763098,6433.392763137817,11761727,68
1767763098,6438.104708989461,11761728,68
1767763098,6472.9634920756025,11761729,68
1767763098,6540.084679921468,11761729,68
1767763098,6627.544164657593,11761730,68
1767763098,6711.926460266113,11761732,68
1767763098,6765.825351079305,11761731,68
1767763098,6768.46981048584,11761732,68
1767763098,6714.09010887146,11761731,74
1767763098,6614.8026784261065,11761731,74
1767763098,6496.859788894653,11761728,74
1767763098,6391.562223434448,11761724,74
1767763098,6324.104468027751,11761720,74
1767763098,6305.545171101888,11761720,74
1767763098,6330.258846282959,11761715,74
1767763098,6379.73427772522,11761713,74
1767763098,6473.732789357503,11761696,74
1767763098,6460.173924763997,11761693,74
1767763098,6435.219844182332,11761685,74
1767763098,6411.7081960042315,11761680,74
1767763098,6398.7743854522705,11761676,74
1767763098,6398.966709772746,11761668,74
1767763098,6408.582925796509,11761657,74
1767763098,6420.7955201466875,11761650,74
1767763098,6430.0270875295,11761645,74
1767763098,6433.68124961853,11761631,74
1767763098,6432.815790176392,11761621,74
1767763098,6430.796384811401,11761613,74
1767763098,6430.604060490926,11761602,74
1767763098,6433.344682057698,11761588,74
1767763098,6437.864303588867,11761578,74
1767763098,6441.662708918254,11761563,74
1767763098,6442.816654841105,11761553,74
1767763098,6441.229979197185,11761542,74
1767763098,6438.825925191243,11761528,74
1767763098,6438.585519790649,11761514,74
1767763098,6443.057060241699,11761499,74
1767763098,6453.009843826294,11761487,74
1767763098,6466.809113820394,11761472,74
1767763098,6481.618086496989,11761457,74
1767763098,6494.167248408,11761439,74
1767763098,6502.244869867961,11761425,74
1767763098,6505.033572514852,11761410,74
1767763098,6503.639221191406,11761394,74
1767763098,6499.600410461426,11761381,74
1767763098,6494.888464609782,11761362,74
1767763098,6490.176518758138,11761350,74
1767763098,6485.704978307088,11761333,74
1767763098,6481.425762176514,11761320,74
1767763098,6477.146546045939,11761305,74
1767763098,6473.44430287679,11761290,74
1767763098,6470.9921677907305,11761275,74
1767763098,6470.703681310018,11761262,74
1767763098,6472.9634920756025,11761248,74
1767763098,6477.8196811676025,11761235,74
1767763098,6484.647194544475,11761225,74
1767763098,6492.340167363484,11761210,74
1767763098,6500.081221262614,11761197,74
1767763098,6507.052977879842,11761185,74
1767763098,6512.774626413981,11761174,74
1767763098,6516.765356063843,11761164,74
1767763098,6518.640518188477,11761153,74
1767763098,6517.871220906575,11761142,74
1767763098,6514.168977737427,11761133,74
1767763098,6507.822275161743,11761123,74
1767763098,6499.311923980713,11761120,74
1767763098,6489.743789037068,11761113,74
1767763098,6480.512221654256,11761105,74
1767763098,6472.578843434651,11761096,74
1767763098,6466.712951660156,11761091,74
1767763099,6463.154951731364,11761087,74
1767763099,6461.472113927205,11761082,74
1767763099,6461.231708526611,11761077,74
1767763099,6461.472113927205,11761075,74
1767763099,6461.7125193278,11761076,74
1767763099,6461.183627446492,11761071,74
1767763099,6459.26038424174,11761071,74
1767763099,6455.173492431641,11761071,74
1767763099,6448.778708775838,11761072,74
1767763099,6440.701087315877,11761069,74
1767763099,6432.527303695679,11761074,74
1767763099,6426.757574081421,11761072,74
1767763099,6425.795952479045,11761071,74
1767763099,6431.229114532471,11761078,74
1767763099,6442.864735921224,11761079,74
1767763099,6458.44300587972,11761084,74
1767763099,6473.780870437622,11761085,74
1767763099,6484.214464823405,11761088,74
1767763099,6486.185789108276,11761096,74
1767763099,6478.7813027699785,11761101,74
1767763099,6464.260816574097,11761104,74
1767763099,6447.288195292155,11761106,74
1767763099,6433.873573939006,11761115,74
1767763099,6428.296168645223,11761117,74
1767763099,6432.286898295085,11761126,74
1767763099,6444.018681844075,11761125,74
1767763099,6458.971897761027,11761133,74
1767763099,6471.569140752156,11761138,74
1767763099,6477.435032526652,11761142,74
1767763099,6475.2233028411865,11761151,74
1767763099,6466.809113820394,11761153,74
1767763099,6456.4236005147295,11761161,74
1767763099,6448.922952016194,11761166,74
1767763099,6447.720925013225,11761171,74
1767763099,6453.923384348552,11761172,74
1767763099,6465.75133005778,11761180,74
1767763099,6479.742924372355,11761187,74
1767763099,6491.71511332194,11761188,74
1767763099,6498.927275339763,11761194,74
1767763099,6500.273545583089,11761198,74
1767763099,6496.523221333821,11761205,74
1767763099,6489.599545796712,11761210,74
1767763099,6481.521924336751,11761211,74
1767763099,6473.877032597859,11761214,74
1767763099,6467.386086781819,11761219,74
1767763099,6462.001005808513,11761223,74
1767763099,6457.529465357463,11761229,74
1767763099,6453.779141108195,11761229,74
1767763099,6450.990438461304,11761235,74
1767763099,6449.49992497762,11761237,74
1767763099,6449.836492538452,11761238,74
1767763099,6452.192465464274,11761246,74
1767763099,6456.712086995442,11761245,74
1767763099,6463.347276051839,11761245,74
1767763099,6471.809546152751,11761249,74
1767763099,6481.521924336751,11761248,74
1767763099,6491.330464680989,11761253,74
1767763099,6499.600410461426,11761253,74
1767763099,6504.6970049540205,11761256,74
1767763099,6504.985491434733,11761257,74
1767763099,6500.129302342732,11761256,74
1767763099,6490.945816040039,11761257,74
1767763099,6479.646762212117,11761258,74
1767763099,6469.020843505859,11761258,74
1767763099,6461.472113927205,11761262,74
1767763099,6458.298762639363,11761263,74
1767763099,6458.587249120076,11761263,74
1767763099,6459.981600443522,11761264,74
1767763099,6459.789276123047,11761266,74
1767763099,6456.375519434611,11761270,74
1767763099,6450.076897939046,11761269,74
1767763099,6443.393627802531,11761274,74
1767763099,6439.5952224731445,11761274,74
1767763099,6441.566546758016,11761277,74
1767763099,6450.076897939046,11761276,74
1767763099,6462.962627410889,11761279,74
1767763099,6476.088762283325,11761281,74
1767763099,6484.791437784831,11761285,74
1767763099,6486.089626948039,11761285,74
1767763099,6479.791005452474,11761290,74
1767763099,6468.828519185384,11761290,74
1767763099,6457.817951838176,11761292,74
1767763099,6450.990438461304,11761295,74
1767763099,6450.701951980591,11761296,74
1767763099,6456.231276194255,11761303,74
1767763099,6464.50122197469,11761304,74
1767763099,6471.617221832275,11761307,74
1767763099,6474.454005559285,11761312,74
1767763099,6472.338438034058,11761315,74
1767763099,6466.712951660156,11761322,74
1767763099,6460.895140965779,11761326,74
1767763099,6457.481384277344,11761329,74
1767763099,6458.0583572387695,11761332,74
1767763099,6462.193330128987,11761336,74
1767763099,6467.674573262532,11761340,74
1767763099,6472.338438034058,11761346,74
1767763099,6474.357843399048,11761352,74
1767763099,6473.636627197266,11761354,74
1767763099,6471.088329950969,11761360,74
1767763099,6468.3957894643145,11761365,74
1767763099,6466.664870580037,11761369,74
1767763099,6466.232140858968,11761374,74
1767763099,6466.232140858968,11761380,74
1767763099,6465.655167897542,11761383,74
1767763099,6463.635762532552,11761391,74
1767763099,6460.222005844116,11761394,74
1767763099,6456.4236005147295,11761401,74
1767763099,6453.442573547363,11761403,74
1767763099,6452.480951944987,11761408,74
1767763099,6454.356114069621,11761418,74
1767763099,6458.587249120076,11761423,74
1767763099,6464.260816574097,11761425,74
1767763099,6470.270951588948,11761433,74
1767763099,6476.040681203206,11761436,74
1767763099,6481.666167577107,11761443,74
1767763099,6487.67630259196,11761449,74
1767763099,6494.6480592091875,11761453,74
1767763099,6512.966950734456,11761466,74
1767763099,6511.476437250773,11761472,74
1767763099,6502.7256806691485,11761480,74
1767763099,6487.003167470296,11761485,74
1767763099,6466.520627339681,11761486,74
1767763099,6445.364952087402,11761495,74
1767763099,6428.103844324748,11761498,74
1767763099,6417.910655339559,11761502,74
1767763099,6415.650844573975,11761509,74
1767763099,6419.641574223836,11761514,74
1767763099,6426.036357879639,11761517,74
1767763099,6431.27719561259,11761522,74
1767763099,6433.29660097758,11761528,74
1767763099,6432.238817214966,11761532,74
1767763099,6430.5078983306885,11761538,74
1767763099,6430.555979410808,11761541,74
1767763099,6433.488925298055,11761546,74
1767763099,6437.527736028035,11761551,74
1767763099,6438.874006271362,11761555,74
1767763099,6434.0658982594805,11761557,74
1767763099,6423.103411992391,11761564,74
1767763099,6411.035060882568,11761568,74
1767763099,6407.428979873657,11761574,74
1767763099,6423.247655232747,11761573,74
1767763099,6465.655167897542,11761577,74
1767763099,6533.449490865071,11761581,74
1767763099,6615.043083826701,11761585,74
1767763099,6690.818866093953,11761584,74
1767763099,6739.140351613362,11761589,74
1767763099,6743.996540705363,11761595,74
1767763099,6701.733271280925,11761596,70
1767763099,6622.495651245117,11761594,70
1767763099,6527.920166651408,11761599,70
1767763099,6442.816654841105,11761598,70
1767763099,6386.898358662923,11761601,70
1767763099,6368.531386057536,11761595,70
1767763099,6382.715304692586,11761596,70
1767763099,6414.496898651123,11761595,70
1767763099,6446.134249369304,11761592,70
1767763099,6463.972330093384,11761592,70
1767763099,6463.443438212077,11761589,70
1767763099,6448.922952016194,11761590,70
1767763099,6430.315574010213,11761585,70
1767763099,6417.333682378133,11761585,70
1767763099,6415.410439173381,11761579,70
1767763099,6423.488060633342,11761574,70
1767763099,6435.796817143758,11761568,70
1767763099,6445.509195327759,11761563,70
1767763099,6448.0094114939375,11761555,70
1767763099,6443.00897916158,11761548,70
1767763099,6434.258222579956,11761542,70
1767763099,6426.997979482015,11761529,70
1767763099,6424.930493036906,11761522,70
1767763099,6428.680817286174,11761515,70
1767763099,6446.566979090373,11761478,70
1767763099,6446.326573689778,11761472,70
1767763099,6444.114844004313,11761459,70
1767763099,6443.057060241699,11761446,70
1767763099,6446.038087209065,11761429,70
1767763099,6453.731060028076,11761420,70
1767763099,6464.8377895355225,11761408,70
1767763099,6476.088762283325,11761394,70
1767763099,6484.454870223999,11761379,70
1767763099,6488.012870152791,11761364,70
1767763099,6487.051248550415,11761349,70
1767763099,6483.3009243011475,11761335,70
1767763099,6479.117870330811,11761317,70
1767763099,6476.665735244751,11761306,70
1767763099,6476.617654164632,11761293,70
1767763099,6478.444735209147,11761274,70
1767763099,6480.993032455444,11761256,70
1767763099,6482.772032419841,11761246,70
1767763099,6482.916275660197,11761231,70
1767763099,6481.666167577107,11761215,70
1767763099,6479.55060005188,11761199,70
1767763099,6477.53119468689,11761186,70
1767763099,6476.5214920043945,11761172,70
1767763099,6476.71381632487,11761158,70
1767763099,6478.156248728435,11761146,70
1767763099,6480.608383814494,11761132,70
1767763099,6483.58941078186,11761126,70
1767763099,6486.955086390178,11761111,70
1767763099,6490.849653879802,11761100,70
1767763099,6495.3211943308515,11761093,70
1767763099,6500.754356384277,11761079,70
1767763099,6507.14914004008,11761074,70
1767763099,6513.543923695882,11761060,70
1767763099,6518.784761428833,11761056,70
1767763099,6521.33305867513,11761048,70
1767763099,6519.842545191447,11761044,70
1767763099,6513.7843290964765,11761037,70
1767763099,6503.927707672119,11761032,70
1767763099,6491.907437642415,11761028,70
1767763099,6479.983329772949,11761025,70
1767763099,6470.270951588948,11761021,70
1767763099,6463.8761679331465,11761017,70
1767763099,6460.510492324829,11761016,70
1767763099,6459.068059921265,11761014,70
1767763099,6457.673708597819,11761011,70
1767763099,6455.1254113515215,11761014,70
1767763099,6450.894276301066,11761013,70
1767763099,6445.46111424764,11761014,70
1767763099,6440.412600835164,11761013,70
1767763099,6437.095006306966,11761017,70
1767763099,6436.51803334554,11761020,70
1767763099,6438.922087351481,11761021,70
1767763099,6443.970600763957,11761023,70
1767763099,6450.557708740234,11761032,70
1767763099,6457.817951838176,11761030,70
1767763099,6464.693546295166,11761036,70
1767763099,6470.415194829305,11761041,70
1767763099,6474.069356918335,11761044,70
1767763099,6474.8867352803545,11761049,70
1767763099,6472.24227587382,11761055,70
1767763099,6466.712951660156,11761056,70
1767763099,6459.69311396281,11761063,70
1767763099,6453.250249226888,11761069,70
1767763099,6449.596087137858,11761075,70
1767763099,6450.124979019165,11761078,70
1767763099,6454.885005950928,11761085,70
1767763099,6462.289492289226,11761088,70
1767763099,6469.742059707642,11761095,70
1767763099,6474.790573120117,11761103,70
1767763099,6476.377248764038,11761107,70
1767763099,6474.838654200236,11761114,70
1767763099,6472.098032633464,11761117,70
1767763099,6470.22287050883,11761123,70
1767763099,6470.126708348592,11761126,70
1767763099,6471.472978591919,11761130,70
1767763100,6472.194194793701,11761136,70
1767763100,6470.0305461883545,11761141,70
1767763100,6463.587681452434,11761144,70
1767763100,6453.490654627482,11761148,70
1767763100,6442.720492680867,11761152,70
1767763100,6435.171763102214,11761158,70
1767763100,6434.017817179362,11761161,70
1767763100,6440.412600835164,11761164,70
1767763100,6452.673276265462,11761170,70
1767763100,6466.761032740275,11761170,70
1767763100,6477.91584332784,11761172,70
1767763100,6482.675870259603,11761178,70
1767763100,6480.079491933187,11761177,70
1767763100,6471.761465072632,11761178,70
1767763100,6461.664438247681,11761185,70
1767763100,6454.067627588908,11761184,70
1767763100,6452.144384384155,11761189,70
1767763100,6456.856330235799,11761191,70
1767763100,6467.0976003011065,11761194,70
1767763100,6480.175654093425,11761195,70
1767763100,6493.061383565267,11761196,70
1767763100,6503.0622482299805,11761199,70
1767763100,6508.495410283406,11761202,70
1767763100,6508.495410283406,11761201,70
1767763100,6503.591140111287,11761202,70
1767763100,6494.55189704895,11761209,70
1767763100,6483.493248621623,11761210,70
1767763100,6472.67500559489,11761213,70
1767763100,6464.405059814453,11761213,70
1767763100,6460.702816645305,11761217,70
1767763100,6462.337573369344,11761220,70
1767763100,6468.299627304077,11761219,70
1767763100,6476.233005523682,11761225,70
1767763100,6482.627789179484,11761225,70
1767763100,6484.839518864949,11761231,70
1767763100,6481.329600016276,11761233,70
1767763100,6472.67500559489,11761238,70
1767763100,6461.424032847087,11761238,70
1767763100,6450.557708740234,11761245,70
1767763100,6442.576249440511,11761249,70
1767763100,6438.825925191243,11761250,70
1767763100,6438.9701684316,11761254,70
1767763100,6441.470384597778,11761256,70
1767763100,6444.595654805501,11761261,70
1767763100,6447.432438532512,11761269,70
1767763100,6449.692249298096,11761275,70
1767763100,6451.855897903442,11761280,70
1767763100,6454.1637897491455,11761284,70
1767763100,6456.471681594849,11761286,70
1767763100,6458.250681559245,11761292,70
1767763100,6459.212303161621,11761297,70
1767763100,6459.308465321858,11761305,70
1767763100,6459.596951802571,11761305,70
1767763100,6461.424032847087,11761319,70
1767763100,6465.75133005778,11761320,70
1767763100,6472.578843434651,11761326,70
1767763100,6480.223735173543,11761331,70
1767763100,6486.089626948039,11761336,70
1767763100,6488.012870152791,11761344,70
1767763100,6485.128005345662,11761348,70
1767763100,6478.829383850098,11761356,70
1767763100,6472.001870473226,11761364,70
1767763100,6467.722654342651,11761367,70
1767763100,6467.963059743245,11761375,70
1767763100,6472.098032633464,11761381,70
1767763100,6477.435032526652,11761385,70
1767763100,6480.127573013306,11761392,70
1767763100,6477.4831136067705,11761397,70
1767763100,6469.261248906453,11761404,70
1767763100,6458.0583572387695,11761412,70
1767763100,6448.105573654175,11761417,70
1767763100,6443.537871042888,11761427,70
1767763100,6446.470816930135,11761432,70
1767763100,6456.087032953898,11761434,70
1767763100,6469.117005666097,11761442,70
1767763100,6481.714248657227,11761446,70
1767763100,6490.945816040039,11761456,70
1767763100,6496.042410532634,11761457,70
1767763100,6498.398383458455,11761466,70
1767763100,6500.65819422404,11761473,70
1767763100,6505.081653594971,11761482,70
1767763100,6512.293815612793,11761485,70
1767763100,6520.708004633586,11761491,70
1767763100,6527.583599090576,11761498,70
1767763100,6530.324220657349,11761502,70
1767763100,6527.102788289388,11761507,70
1767763100,6518.015464146932,11761518,70
1767763100,6504.600842793782,11761524,70
1767763100,6489.407221476237,11761532,70
1767763100,6474.838654200236,11761534,70
1767763100,6462.91454633077,11761543,70
1767763100,6454.596519470215,11761545,70
1767763100,6449.596087137858,11761553,70
1767763100,6446.999708811442,11761557,70
1767763100,6445.172627766927,11761564,70
1767763100,6442.23968187968,11761567,70
1767763100,6436.9988441467285,11761578,70
1767763100,6429.017384847005,11761577,70
1767763100,6419.401168823242,11761588,70
1767763100,6410.313844680786,11761591,70
1767763100,6404.159466425578,11761598,70
1767763100,6402.717034022014,11761603,70
1767763100,6405.601898829143,11761608,70
1767763100,6410.890817642212,11761614,70
1767763100,6415.458520253499,11761620,70
1767763100,6417.622168858846,11761627,70
1767763100,6418.5357093811035,11761629,70
1767763100,6422.863006591797,11761632,70
1767763100,6437.3354117075605,11761641,70
1767763100,6516.09222094218,11761647,70
1767763100,6575.71276028951,11761653,70
1767763100,6634.323596954346,11761658,70
1767763100,6675.577163696289,11761660,70
1767763100,6685.385704040527,11761661,70
1767763100,6657.210191090901,11761666,69
1767763100,6595.426003138225,11761671,69
1767763100,6514.649788538615,11761673,69
1767763100,6434.931357701619,11761671,69
1767763100,6375.214656194051,11761673,69
1767763100,6346.991062164307,11761675,69
1767763100,6351.174116134644,11761678,69
1767763100,6378.628412882487,11761673,69
1767763100,6414.689222971599,11761677,69
1767763100,6445.172627766927,11761675,69
1767763100,6461.27978960673,11761675,69
1767763100,6461.856762568156,11761673,69
1767763100,6451.471249262492,11761670,69
1767763100,6438.056627909343,11761669,69
1767763100,6427.9115200042725,11761662,69
1767763100,6423.776547114055,11761661,69
1767763100,6424.209276835124,11761653,69
1767763100,6425.55554707845,11761649,69
1767763100,6424.449682235718,11761646,69
1767763100,6420.026222864787,11761640,69
1767763100,6413.82376352946,11761636,69
1767763100,6409.73687171936,11761625,69
1767763100,6411.0831419626875,11761618,69
1767763100,6419.353087743123,11761612,69
1767763100,6433.585087458293,11761602,69
1767763100,6450.557708740234,11761593,69
1767763100,6466.616789499919,11761581,69
1767763100,6478.877464930217,11761571,69
1767763100,6486.2338701883955,11761559,69
1767763100,6489.647626876831,11761546,69
1767763100,6491.0900592803955,11761537,69
1767763100,6492.676734924316,11761526,69
1767763100,6495.9462483723955,11761515,69
1767763100,6500.994761784871,11761501,69
1767763100,6507.14914004008,11761488,69
1767763100,6513.015031814575,11761474,69
1767763100,6516.957680384318,11761459,69
1767763100,6517.967383066813,11761445,69
1767763100,6515.467166900635,11761436,69
1767763100,6509.745518366496,11761423,69
1767763100,6501.715977986653,11761407,69
1767763100,6492.772897084554,11761392,69
1767763100,6484.358708063762,11761381,69
1767763100,6477.579275767009,11761368,69
1767763100,6472.9634920756025,11761351,69
1767763100,6470.319032669067,11761342,69
1767763100,6469.0689245859785,11761329,69
1767763100,6468.251546223958,11761310,69
1767763100,6467.338005701701,11761299,69
1767763100,6466.5687084198,11761286,69
1767763100,6466.905275980632,11761277,69
1767763100,6469.165086746216,11761263,69
1767763100,6474.213600158691,11761256,69
1767763100,6481.858491897583,11761242,69
1767763100,6490.657329559326,11761233,69
1767763100,6498.590707778931,11761225,69
1767763100,6503.639221191406,11761214,69
1767763100,6504.120031992595,11761204,69
1767763100,6499.696572621663,11761195,69
1767763100,6491.71511332194,11761188,69
1767763100,6482.531627019246,11761182,69
1767763100,6474.742492039998,11761171,69
1767763100,6470.60751914978,11761170,69
1767763100,6470.9921677907305,11761163,69
1767763100,6475.2233028411865,11761159,69
1767763100,6481.666167577107,11761156,69
1767763100,6487.820545832316,11761151,69
1767763100,6491.570870081584,11761144,69
1767763100,6491.71511332194,11761146,69
1767763100,6488.1571133931475,11761143,69
1767763100,6482.243140538533,11761138,69
1767763100,6475.5598704020185,11761140,69
1767763100,6469.597816467285,11761137,69
1767763100,6465.270519256592,11761139,69
1767763100,6462.577978769938,11761138,69
1767763100,6461.231708526611,11761141,69
1767763100,6460.558573404948,11761142,69
1767763100,6460.654735565186,11761145,69
1767763100,6461.808681488037,11761149,69
1767763100,6464.741627375285,11761154,69
1767763100,6470.270951588948,11761153,69
1767763100,6478.012005488078,11761160,69
1767763100,6486.907005310059,11761163,69
1767763100,6495.032707850139,11761171,69
1767763100,6500.65819422404,11761172,69
1767763100,6502.389113108317,11761181,69
1767763100,6500.513950983684,11761187,69
1767763100,6496.330897013347,11761192,69
1767763100,6492.003599802653,11761198,69
1767763100,6488.974491755168,11761204,69
1767763100,6487.820545832316,11761212,69
1767763100,6487.580140431722,11761217,69
1767763100,6486.378113428752,11761227,69
1767763100,6482.3393026987715,11761230,69
1767763100,6474.982897440593,11761239,69
1767763100,6465.270519256592,11761245,69
1767763100,6455.942789713542,11761252,69
1767763100,6449.9326546986895,11761262,69
1767763100,6449.11527633667,11761268,69
1767763100,6453.58681678772,11761277,69
1767763100,6460.991303126018,11761284,69
1767763100,6467.914978663127,11761294,69
1767763100,6470.896005630493,11761300,69
1767763100,6468.011140823364,11761305,69
1767763100,6460.125843683879,11761317,69
1767763100,6449.9326546986895,11761321,69
1767763100,6441.422303517659,11761332,69
1767763100,6437.239249547322,11761337,69
1767763100,6438.248952229817,11761343,69
1767763100,6442.912817001343,11761350,69
1767763100,6447.865168253581,11761361,69
1767763100,6450.028816858928,11761367,69
1767763100,6447.624762852986,11761375,69
1767763100,6441.229979197185,11761381,69
1767763100,6433.392763137817,11761387,69
1767763100,6435.412168502808,11761415,69
1767763100,6441.662708918254,11761422,69
1767763100,6444.932222366333,11761426,69
1767763100,6444.066762924194,11761432,69
1767763100,6439.835627873738,11761439,69
1767763100,6435.123682022095,11761441,69
1767763100,6433.392763137817,11761451,69
1767763100,6437.3354117075605,11761455,69
1767763100,6447.384357452393,11761461,69
1767763100,6461.904843648274,11761466,69
1767763100,6477.53119468689,11761472,69
1767763100,6490.416924158732,11761476,69
1767763100,6497.965653737386,11761481,69
1767763100,6499.263842900594,11761487,69
1767763100,6495.032707850139,11761489,69
1767763100,6487.483978271484,11761494,69
1767763100,6479.214032491048,11761494,69
1767763101,6472.530762354533,11761499,69
1767763101,6468.491951624553,11761501,69
1767763101,6467.049519220988,11761505,69
1767763101,6467.049519220988,11761506,69
1767763101,6467.001438140869,11761507,69
1767763101,6465.414762496948,11761509,69
1767763101,6461.087465286255,11761512,69
1767763101,6453.8272221883135,11761514,69
1767763101,6444.162925084432,11761511,69
1767763101,6433.729330698649,11761511,69
1767763101,6424.35352007548,11761506,69
1767763101,6417.814493179321,11761504,69
1767763101,6415.266195933024,11761504,69
1767763101,6416.708628336589,11761502,69
1767763101,6421.1320877075195,11761499,69
1767763101,6426.997979482015,11761496,69
1767763101,6432.623465855916,11761493,69
1767763101,6436.854600906372,11761490,69
1767763101,6439.547141393025,11761482,69
1767763101,6441.326141357422,11761480,69
1767763101,6442.912817001343,11761471,69
1767763101,6444.932222366333,11761465,69
1767763101,6446.855465571086,11761459,69
1767763101,6447.432438532512,11761452,69
1767763101,6445.364952087402,11761442,69
1767763101,6439.835627873738,11761432,69
1767763101,6431.517601013184,11761422,69
1767763101,6421.997547149658,11761415,69
1767763101,6413.871844609578,11761403,69
1767763101,6409.35222307841,11761395,69
1767763101,6409.496466318767,11761379,69
1767763101,6413.919925689697,11761373,69
1767763101,6420.7955201466875,11761357,69
1767763101,6428.296168645223,11761346,69
1767763101,6435.460249582927,11761333,69
1767763101,6442.720492680867,11761323,69
1767763101,6451.5674114227295,11761308,69
1767763101,6463.635762532552,11761296,69
1767763101,6479.694843292236,11761281,69
1767763101,6498.302221298218,11761269,69
1767763101,6516.86151822408,11761255,69
1767763101,6532.2474638621015,11761244,69
1767763101,6542.104085286458,11761228,69
1767763101,6546.91219329834,11761217,69
1767763101,6548.7392743428545,11761201,69
1767763101,6551.143328348796,11761189,69
1767763101,6556.624571482341,11761175,69
1767763101,6565.327246983846,11761161,69
1767763101,6574.847300847371,11761147,69
1767763101,6581.097841262817,11761137,69
1767763101,6580.617030461629,11761122,69
1767763101,6573.068300882976,11761107,69
1767763101,6560.999949773152,11761099,69
1767763101,6549.556652704875,11761089,69
1767763101,6543.25803120931,11761074,69
1767763101,6543.498436609904,11761068,69
1767763101,6547.29684193929,11761050,69
1767763101,6548.1142203013105,11761046,69
1767763101,6539.171139399211,11761035,69
1767763101,6517.486572265625,11761026,69
1767763101,6486.281951268514,11761017,69
1767763101,6454.5003573099775,11761009,69
1767763101,6433.056195576985,11761000,69
1767763101,6429.882844289144,11760989,69
1767763101,6445.268789927165,11760990,69
1767763101,6470.60751914978,11760978,69
1767763101,6491.71511332194,11760969,69
1767763101,6495.273113250732,11760964,69
1767763101,6475.415627161662,11760959,69
1767763101,6438.585519790649,11760954,69
1767763101,6401.755412419637,11760948,69
1767763101,6386.417547861735,11760942,69
1767763101,6408.967574437459,11760936,69
1767763101,6473.05965423584,11760930,69
1767763101,6565.711895624797,11760927,69
1767763101,6661.104758580525,11760925,69
1767763101,6729.572216669719,11760920,69
1767763101,6748.420000076294,11760913,69
1767763101,6710.868676503499,11760910,70
1767763101,6628.505786259969,11760906,70
1767763101,6527.00662612915,11760902,70
1767763101,6436.614195505778,11760897,70
1767763101,6380.984385808309,11760892,70
1767763101,6369.733413060506,11760890,70
1767763101,6396.658817927043,11760884,70
1767763101,6444.162925084432,11760877,70
1767763101,6490.89773495992,11760871,70
1767763101,6520.611842473348,11760867,70
1767763101,6526.958545049031,11760858,70
1767763101,6514.4093831380205,11760856,70
1767763101,6493.734518686931,11760848,70
1767763101,6477.242708206177,11760842,70
1767763101,6472.194194793701,11760834,70
1767763101,6479.406356811523,11760829,70
1767763101,6493.397951126099,11760820,70
1767763101,6505.850950876872,11760813,70
1767763101,6509.457031885783,11760801,70
1767763101,6500.994761784871,11760794,70
1767763101,6481.57000541687,11760782,70
1767763101,6456.327438354492,11760773,70
1767763101,6431.613763173421,11760762,70
1767763101,6412.910223007202,11760752,70
1767763101,6403.438250223796,11760736,70
1767763101,6403.053601582845,11760724,70
1767763101,6409.400304158528,11760709,70
1767763101,6419.06460126241,11760699,70
1767763101,6428.344249725342,11760687,70
1767763101,6434.835195541382,11760671,70
1767763101,6437.527736028035,11760657,70
1767763101,6437.143087387085,11760642,70
1767763101,6435.652573903401,11760626,70
1767763101,6435.267925262451,11760612,70
1767763101,6437.527736028035,11760596,70
1767763101,6442.768573760986,11760578,70
1767763101,6449.403762817383,11760561,70
1767763101,6455.1254113515215,11760548,70
1767763101,6457.385222117106,11760527,70
1767763101,6455.029249191284,11760517,70
1767763101,6448.778708775838,11760498,70
1767763101,6441.566546758016,11760480,70
1767763101,6436.9988441467285,11760464,70
1767763101,6438.585519790649,11760447,70
1767763101,6447.528600692749,11760434,70
1767763101,6461.952924728394,11760420,70
1767763101,6477.91584332784,11760400,70
1767763101,6490.705410639445,11760384,70
1767763101,6496.715545654297,11760371,70
1767763101,6495.417356491089,11760361,70
1767763101,6489.070653915405,11760342,70
1767763101,6482.243140538533,11760329,70
1767763101,6479.55060005188,11760317,70
1767763101,6483.3009243011475,11760302,70
1767763101,6492.436329523723,11760293,70
1767763101,6502.67759958903,11760280,70
1767763101,6508.735815684001,11760270,70
1767763101,6506.6202481587725,11760259,70
1767763101,6495.513518651326,11760250,70
1767763101,6479.021708170573,11760241,70
1767763101,6463.395357131958,11760234,70
1767763101,6455.702384312947,11760221,70
1767763101,6459.981600443522,11760216,70
1767763101,6475.704113642375,11760209,70
1767763101,6497.677167256673,11760202,70
1767763101,6517.534653345744,11760198,70
1767763101,6527.535518010457,11760194,70
1767763101,6523.544788360596,11760190,70
1767763101,6507.14914004008,11760190,70
1767763101,6485.031843185425,11760182,70
1767763101,6466.520627339681,11760179,70
1767763101,6459.500789642334,11760180,70
1767763101,6467.722654342651,11760180,70
1767763101,6489.022572835286,11760178,70
1767763101,6516.09222094218,11760183,70
1767763101,6539.555788040161,11760181,70
1767763101,6551.76838239034,11760181,70
1767763101,6548.979679743449,11760184,70
1767763101,6533.257166544597,11760185,70
1767763101,6510.562896728516,11760190,70
1767763101,6488.349437713623,11760194,70
1767763101,6472.482681274414,11760195,70
1767763101,6465.414762496948,11760200,70
1767763101,6465.7994111378985,11760203,70
1767763101,6469.453573226929,11760209,70
1767763101,6472.098032633464,11760212,70
1767763101,6470.415194829305,11760219,70
1767763101,6463.683843612671,11760222,70
1767763101,6453.15408706665,11760228,70
1767763101,6441.181898117065,11760237,70
1767763101,6429.882844289144,11760241,70
1767763101,6420.3147093455,11760247,70
1767763101,6412.910223007202,11760258,70
1767763101,6407.621304194133,11760263,70
1767763101,6404.736439387004,11760273,70
1767763101,6404.832601547241,11760277,70
1767763101,6408.919493357341,11760284,70
1767763101,6417.141358057658,11760287,70
1767763101,6428.584655125936,11760300,70
1767763101,6440.8934116363525,11760303,70
1767763101,6450.942357381185,11760310,70
1767763101,6456.135114034017,11760319,70
1767763101,6455.510059992473,11760325,70
1767763101,6450.2692222595215,11760330,70
1767763101,6443.249384562175,11760341,70
1767763101,6438.15279006958,11760351,70
1767763101,6437.816222508748,11760354,70
1767763101,6442.864735921224,11760362,70
1767763101,6451.711654663086,11760371,70
1767763101,6461.183627446492,11760375,70
1767763101,6467.578411102295,11760381,70
1767763101,6468.924681345622,11760389,70
1767763101,6465.1743570963545,11760396,70
1767763101,6458.875735600789,11760403,70
1767763101,6453.442573547363,11760409,70
1767763101,6451.855897903442,11760417,70
1767763101,6455.317735671997,11760427,70
1767763101,6462.577978769938,11760433,70
1767763101,6470.703681310018,11760434,70
1767763101,6476.377248764038,11760443,70
1767763101,6477.435032526652,11760450,70
1767763101,6474.069356918335,11760453,70
1767763101,6468.540032704671,11760459,70
1767763101,6464.50122197469,11760464,70
1767763101,6464.405059814453,11760468,70
1767763101,6469.020843505859,11760473,70
1767763101,6476.71381632487,11760479,70
1767763101,6484.502951304118,11760480,70
1767763101,6489.503383636475,11760486,70
1767763101,6490.993897120158,11760491,70
1767763101,6489.984194437663,11760495,70
1767763101,6489.69570795695,11760499,70
1767763101,6492.772897084554,11760505,70
1767763101,6500.177383422852,11760505,70
1767763101,6509.408950805664,11760508,70
1767763101,6516.140302022298,11760512,70
1767763101,6515.371004740397,11760514,70
1767763101,6504.793167114258,11760517,70
1767763101,6486.185789108276,11760520,70
1767763101,6465.1743570963545,11760524,70
1767763101,6449.355681737264,11760524,70
1767763101,6445.124546686809,11760530,70
1767763101,6454.404195149739,11760532,70
1767763101,6473.636627197266,11760534,70
1767763101,6495.3211943308515,11760539,70
1767763101,6510.562896728516,11760545,70
1767763101,6513.592004776001,11760543,70
1767763101,6503.831545511882,11760547,70
1767763101,6485.993464787801,11760553,70
1767763101,6467.722654342651,11760552,70
1767763101,6456.279357274373,11760556,70
1767763101,6454.5003573099775,11760560,70
1767763101,6460.558573404948,11760562,70
1767763101,6468.20346514384,11760569,70
1767763101,6470.944086710612,11760569,70
1767763101,6464.93395169576,11760573,70
1767763101,6451.086600621541,11760575,70
1767763101,6435.027519861857,11760584,70
1767763101,6423.728466033936,11760587,70
1767763101,6422.670682271321,11760591,70
1767763101,6432.575384775798,11760598,70
1767763101,6449.403762817383,11760605,70
1767763101,6466.087897618611,11760608,70
1767763101,6476.1849244435625,11760612,70
1767763101,6476.761897404988,11760620,70
1767763101,6469.934384028117,11760628,70
1767763101,6461.616357167562,11760634,70
1767763101,6458.731492360433,11760641,70
1767763101,6465.462843577067,11760647,70
1767763101,6481.473843256633,11760653,70
1767763101,6501.571734746297,11760662,70
1767763101,6518.303950627645,11760669,70
1767763101,6525.323788324992,11760681,70
1767763102,6520.275274912517,11760688,70
1767763102,6505.562464396159,11760693,70
1767763102,6487.099329630534,11760703,70
1767763102,6472.001870473226,11760715,70
1767763102,6464.741627375285,11760725,70
1767763102,6465.943654378255,11760736,70
1767763102,6472.049951553345,11760745,70
1767763102,6477.675437927246,11760760,70
1767763102,6478.012005488078,11760768,70
1767763102,6471.569140752156,11760777,70
1767763102,6460.125843683879,11760793,70
1767763102,6447.913249333699,11760800,70
1767763102,6439.210573832194,11760814,70
1767763102,6435.74873606364,11760826,70
1767763102,6436.51803334554,11760841,70
1767763102,6437.912384668986,11760852,70
1767763102,6436.373790105184,11760862,70
1767763102,6430.267492930095,11760879,70
1767763102,6421.180168787639,11760894,70
1767763102,6413.246790568034,11760905,70
1767763102,6410.842736562093,11760918,70
1767763102,6415.747006734212,11760932,70
1767763102,6425.507465998332,11760948,70
1767763102,6434.306303660075,11760963,70
1767763102,6435.412168502808,11760976,70
1767763102,6425.122817357381,11760991,70
1767763102,6406.130790710449,11761003,70
1767763102,6387.8599802653,11761019,70
1767763102,6383.821169535319,11761035,70
1767763102,6406.371196111043,11761051,70
1767763102,6460.606654485066,11761058,70
1767763102,6540.517409642537,11761071,70
1767763102,6629.323164621989,11761085,70
1767763102,6703.752676645915,11761100,70
1767763102,6742.409865061442,11761110,70
1767763102,6732.793649037679,11761124,72
1767763102,6676.875352859497,11761138,72
1767763102,6590.137084325154,11761146,72
1767763102,6497.100194295247,11761162,72
1767763102,6422.4302768707275,11761172,72
1767763102,6382.811466852824,11761183,72
1767763102,6381.994088490804,11761194,72
1767763102,6410.650412241618,11761203,72
1767763102,6451.038519541423,11761213,72
1767763102,6484.791437784831,11761218,72
1767763102,6499.263842900594,11761231,72
1767763102,6491.667032241821,11761237,72
1767763102,6468.58811378479,11761245,72
1767763102,6441.710789998372,11761250,72
1767763102,6422.814925511678,11761257,72
1767763102,6418.29530398051,11761263,72
1767763102,6427.9115200042725,11761265,72
1767763102,6445.4130331675215,11761272,72
1767763102,6462.433735529582,11761276,72
1767763102,6471.809546152751,11761282,72
1767763102,6470.751762390137,11761283,72
1767763102,6461.087465286255,11761285,72
1767763102,6447.384357452393,11761289,72
1767763102,6435.075600941976,11761289,72
1767763102,6427.62303352356,11761289,72
1767763102,6425.892114639282,11761287,72
1767763102,6428.151925404866,11761289,72
1767763102,6432.04649289449,11761287,72
1767763102,6435.604492823283,11761289,72
1767763102,6438.393195470174,11761285,72
1767763102,6441.374222437541,11761283,72
1767763102,6445.845762888591,11761280,72
1767763102,6452.673276265462,11761279,72
1767763102,6461.039384206136,11761274,72
1767763102,6469.020843505859,11761273,72
1767763102,6474.213600158691,11761267,72
1767763102,6474.8867352803545,11761262,72
1767763102,6470.703681310018,11761259,72
1767763102,6463.154951731364,11761256,72
1767763102,6455.029249191284,11761249,72
1767763102,6449.355681737264,11761245,72
1767763102,6448.0094114939375,11761239,72
1767763102,6450.798114140828,11761234,72
1767763102,6456.038951873779,11761230,72
1767763102,6460.510492324829,11761224,72
1767763102,6461.183627446492,11761221,72
1767763102,6456.664005915324,11761215,72
1767763102,6447.769006093343,11761208,72
1767763102,6437.623898188273,11761202,72
1767763102,6430.700222651164,11761197,72
1767763102,6431.181033452352,11761195,72
1767763102,6441.037654876709,11761190,72
1767763102,6459.3565464019775,11761187,72
1767763102,6482.483545939128,11761183,72
1767763102,6505.081653594971,11761180,72
1767763102,6522.006193796794,11761176,72
1767763102,6530.2761395772295,11761170,72
1767763102,6529.84340985616,11761169,72
1767763102,6523.448626200358,11761163,72
1767763102,6515.034437179565,11761164,72
1767763102,6508.206923802693,11761159,72
1767763102,6504.552761713664,11761159,72
1767763102,6503.302653630574,11761158,72
1767763102,6501.812140146892,11761156,72
1767763102,6497.773329416911,11761152,72
1767763102,6489.888032277425,11761153,72
1767763102,6479.117870330811,11761151,72
1767763102,6468.251546223958,11761151,72
1767763102,6460.46241124471,11761152,72
1767763102,6457.7217896779375,11761151,72
1767763102,6459.837357203166,11761153,72
1767763102,6464.164654413859,11761151,72
1767763102,6466.857194900513,11761151,72
1767763102,6464.789708455403,11761153,72
1767763102,6457.0967356363935,11761158,72
1767763102,6445.941925048828,11761158,72
1767763102,6435.508330663045,11761161,72
1767763102,6430.555979410808,11761162,72
1767763102,6433.633168538411,11761162,72
1767763102,6444.884141286214,11761165,72
1767763102,6460.895140965779,11761169,72
1767763102,6476.617654164632,11761170,72
1767763102,6487.483978271484,11761173,72
1767763102,6490.51308631897,11761174,72
1767763102,6486.42619450887,11761176,72
1767763102,6477.91584332784,11761181,72
1767763102,6469.261248906453,11761183,72
1767763102,6463.491519292195,11761185,72
1767763102,6461.952924728394,11761187,72
1767763102,6463.251113891602,11761186,72
1767763102,6464.885870615642,11761191,72
1767763102,6463.828086853027,11761194,72
1767763102,6458.683411280314,11761194,72
1767763102,6450.124979019165,11761199,72
1767763102,6440.268357594808,11761204,72
1767763102,6432.094573974609,11761202,72
1767763102,6427.767276763916,11761202,72
1767763102,6428.103844324748,11761208,72
1767763102,6431.998411814372,11761206,72
1767763102,6437.671979268392,11761209,72
1767763102,6443.345546722412,11761212,72
1767763102,6448.442141215007,11761208,72
1767763102,6453.346411387126,11761215,72
1767763102,6459.26038424174,11761213,72
1767763102,6467.289924621582,11761213,72
1767763102,6477.435032526652,11761216,72
1767763102,6488.301356633504,11761215,72
1767763102,6497.484842936198,11761215,72
1767763102,6502.581437428792,11761216,72
1767763102,6502.148707707723,11761217,72
1767763102,6496.907869974772,11761214,72
1767763102,6488.782167434692,11761218,72
1767763102,6481.137275695801,11761212,72
1767763102,6476.329167683919,11761216,72
1767763102,6475.5598704020185,11761212,72
1767763102,6478.108167648315,11761210,72
1767763102,6481.618086496989,11761212,72
1767763102,6483.397086461385,11761209,72
1767763102,6481.618086496989,11761209,72
1767763102,6476.569573084514,11761209,72
1767763102,6469.886302947998,11761204,72
1767763102,6464.453140894572,11761205,72
1767763102,6463.010708491008,11761203,72
1767763102,6466.376384099324,11761200,72
1767763102,6473.877032597859,11761199,72
1767763102,6482.916275660197,11761202,72
1767763102,6490.89773495992,11761197,72
1767763102,6495.465437571208,11761196,72
1767763102,6495.9462483723955,11761195,72
1767763102,6493.446032206218,11761194,72
1767763102,6489.69570795695,11761190,72
1767763102,6482.579708099365,11761186,72
1767763102,6480.367978413899,11761187,72
1767763102,6476.5214920043945,11761188,72
1767763102,6471.232573191325,11761183,72
1767763102,6465.366681416829,11761185,72
1767763102,6460.414330164592,11761181,72
1767763102,6457.337141036987,11761185,72
1767763102,6456.231276194255,11761180,72
1767763102,6455.846627553304,11761183,72
1767763102,6454.452276229858,11761183,72
1767763102,6451.2308438618975,11761182,72
1767763102,6446.566979090373,11761179,72
1767763102,6442.912817001343,11761182,72
1767763102,6443.201303482056,11761182,72
1767763102,6449.49992497762,11761181,72
1767763102,6461.616357167562,11761183,72
1767763102,6476.473410924275,11761180,72
1767763102,6488.8302485148115,11761187,72
1767763102,6493.397951126099,11761186,72
1767763102,6487.291653951009,11761186,72
1767763102,6471.376816431682,11761185,72
1767763102,6450.509627660115,11761187,72
1767763102,6431.613763173421,11761190,72
1767763102,6420.891682306926,11761195,72
1767763102,6420.987844467163,11761196,72
1767763102,6429.979006449382,11761197,72
1767763102,6442.23968187968,11761200,72
1767763102,6451.038519541423,11761201,72
1767763102,6451.95206006368,11761203,72
1767763102,6444.739898045857,11761206,72
1767763102,6434.162060419719,11761207,72
1767763102,6427.142222722371,11761207,72
1767763102,6430.075168609619,11761213,72
1767763102,6445.4130331675215,11761214,72
1767763102,6470.0305461883545,11761219,72
1767763102,6496.763626734416,11761220,72
1767763102,6517.198085784912,11761223,72
1767763102,6525.7565180460615,11761226,72
1767763102,6521.813869476318,11761227,72
1767763102,6510.322491327922,11761230,72
1767763102,6499.0234375,11761236,72
1767763102,6494.888464609782,11761236,72
1767763102,6500.465869903564,11761242,72
1767763102,6512.4861399332685,11761244,72
1767763102,6523.592869440715,11761247,72
1767763102,6525.516112645467,11761249,72
1767763102,6513.303518295288,11761253,72
1767763102,6488.109032313029,11761256,72
1767763102,6456.471681594849,11761259,72
1767763102,6427.671114603679,11761264,72
1767763102,6409.35222307841,11761265,72
1767763102,6403.9671421051025,11761267,72
1767763102,6408.4867636362715,11761273,72
1767763102,6416.083574295044,11761276,72
1767763102,6420.1704661051435,11761281,72
1767763102,6417.958736419678,11761286,72
1767763102,6412.285168965657,11761288,72
1767763102,6409.544547398885,11761294,72
1767763102,6415.747006734212,11761298,72
1767763102,6432.47922261556,11761299,72
1767763102,6454.78884379069,11761304,72
1767763102,6472.771167755127,11761304,72
1767763102,6476.761897404988,11761307,72
1767763102,6462.674140930176,11761310,72
1767763102,6436.13338470459,11761315,72
1767763102,6411.275466283162,11761317,72
1767763102,6406.323115030925,11761323,72
1767763102,6434.883276621501,11761326,72
1767763102,6498.975356419881,11761326,72
1767763102,6586.0021114349365,11761330,72
1767763102,6671.8268394470215,11761331,72
1767763102,6729.09140586853,11761335,72
1767763102,6737.842162450154,11761333,72
1767763102,6693.271001180013,11761335,73
1767763102,6607.975165049235,11761334,73
1767763102,6507.581869761149,11761339,73
1767763102,6420.987844467163,11761339,73
1767763102,6369.877656300862,11761336,73
1767763102,6361.559629440308,11761339,73
1767763102,6387.379169464111,11761337,73
1767763102,6428.2480875651045,11761336,73
1767763102,6463.010708491008,11761331,73
1767763102,6477.194627126058,11761329,73
1767763102,6467.722654342651,11761329,73
1767763103,6442.047357559204,11761324,73
1767763103,6413.968006769816,11761323,73
1767763103,6396.129926045735,11761316,73
1767763103,6395.2163855234785,11761314,73
1767763103,6409.688790639241,11761307,73
1767763103,6431.854168574016,11761302,73
1767763103,6452.432870864868,11761297,73
1767763103,6464.50122197469,11761291,73
1767763103,6466.664870580037,11761281,73
1767763103,6462.001005808513,11761276,73
1767763103,6455.846627553304,11761262,73
1767763103,6452.625195185344,11761258,73
1767763103,6453.779141108195,11761244,73
1767763103,6457.866032918294,11761238,73
1767763103,6461.904843648274,11761226,73
1767763103,6463.73192469279,11761213,73
1767763103,6463.058789571126,11761203,73
1767763103,6461.7125193278,11761190,73
1767763103,6462.337573369344,11761173,73
1767763103,6466.712951660156,11761162,73
1767763103,6474.357843399048,11761146,73
1767763103,6483.20476214091,11761135,73
1767763103,6490.320761998494,11761118,73
1767763103,6493.830680847168,11761101,73
1767763103,6493.494113286336,11761089,73
1767763103,6490.89773495992,11761072,73
1767763103,6488.205194473267,11761058,73
1767763103,6486.474275588989,11761044,73
1767763103,6485.416491826375,11761029,73
1767763103,6483.108599980672,11761012,73
1767763103,6477.4831136067705,11760993,73
1767763103,6468.107302983602,11760977,73
1767763103,6456.712086995442,11760961,73
1767763103,6447.192033131917,11760943,73
1767763103,6443.682114283244,11760931,73
1767763103,6448.73062769572,11760918,73
1767763103,6461.327870686849,11760901,73
1767763103,6477.386951446533,11760888,73
1767763103,6490.945816040039,11760867,73
1767763103,6497.100194295247,11760855,73
1767763103,6493.590275446574,11760842,73
1767763103,6482.531627019246,11760827,73
1767763103,6469.309329986572,11760815,73
1767763103,6460.125843683879,11760804,73
1767763103,6459.452708562215,11760795,73
1767763103,6467.722654342651,11760778,73
1767763103,6481.377681096395,11760771,73
1767763103,6494.311491648356,11760755,73
1767763103,6500.8024374643965,11760746,73
1767763103,6497.965653737386,11760740,73
1767763103,6486.955086390178,11760729,73
1767763103,6472.2903569539385,11760721,73
1767763103,6459.837357203166,11760711,73
1767763103,6454.019546508789,11760711,73
1767763103,6455.99087079366,11760703,73
1767763103,6463.299194971721,11760695,73
1767763103,6471.232573191325,11760692,73
1767763103,6475.319465001424,11760689,73
1767763103,6473.636627197266,11760686,73
1767763103,6467.049519220988,11760685,73
1767763103,6459.308465321858,11760681,73
1767763103,6454.548438390096,11760682,73
1767763103,6455.365816752116,11760681,73
1767763103,6461.568276087443,11760678,73
1767763103,6470.174789428711,11760677,73
1767763103,6476.761897404988,11760685,73
1767763103,6478.108167648315,11760685,73
1767763103,6473.155816396077,11760686,73
1767763103,6464.11657333374,11760690,73
1767763103,6455.317735671997,11760694,73
1767763103,6450.990438461304,11760695,73
1767763103,6453.731060028076,11760699,73
1767763103,6462.91454633077,11760705,73
1767763103,6475.415627161662,11760707,73
1767763103,6486.666599909465,11760714,73
1767763103,6492.91714032491,11760721,73
1767763103,6492.340167363484,11760724,73
1767763103,6485.993464787801,11760733,73
1767763103,6477.002302805583,11760739,73
1767763103,6468.828519185384,11760742,73
1767763103,6463.972330093384,11760748,73
1767763103,6462.818384170532,11760756,73
1767763103,6464.11657333374,11760762,73
1767763103,6465.75133005778,11760767,73
1767763103,6466.1359786987305,11760773,73
1767763103,6464.693546295166,11760778,73
1767763103,6462.577978769938,11760786,73
1767763103,6461.27978960673,11760789,73
1767763103,6462.049086888631,11760799,73
1767763103,6465.222438176473,11760805,73
1767763103,6469.40549214681,11760813,73
1767763103,6472.9634920756025,11760818,73
1767763103,6474.646329879761,11760823,73
1767763103,6474.357843399048,11760828,73
1767763103,6473.540465037028,11760835,73
1767763103,6474.069356918335,11760842,73
1767763103,6477.386951446533,11760846,73
1767763103,6483.20476214091,11760850,73
1767763103,6489.262978235881,11760854,73
1767763103,6492.14784304301,11760860,73
1767763103,6488.782167434692,11760866,73
1767763103,6478.012005488078,11760867,73
1767763103,6461.616357167562,11760875,73
1767763103,6444.114844004313,11760876,73
1767763103,6430.748303731282,11760881,73
1767763103,6425.651709238688,11760886,73
1767763103,6430.0270875295,11760892,73
1767763103,6441.614627838135,11760894,73
1767763103,6455.269654591878,11760895,73
1767763103,6465.75133005778,11760900,73
1767763103,6469.838221867879,11760903,73
1767763103,6467.241843541463,11760909,73
1767763103,6461.375951766968,11760912,73
1767763103,6457.000573476155,11760914,73
1767763103,6458.3949247996015,11760921,73
1767763103,6467.049519220988,11760922,73
1767763103,6480.800708134969,11760924,73
1767763103,6494.9846267700195,11760929,73
1767763103,6504.408518473308,11760932,73
1767763103,6505.418221155803,11760937,73
1767763103,6497.629086176555,11760943,73
1767763103,6484.070221583049,11760944,73
1767763103,6469.549735387166,11760950,73
1767763103,6458.635330200195,11760952,73
1767763103,6454.211870829265,11760960,73
1767763103,6455.942789713542,11760961,73
1767763103,6461.27978960673,11760967,73
1767763103,6466.616789499919,11760970,73
1767763103,6468.924681345622,11760977,73
1767763103,6467.338005701701,11760979,73
1767763103,6462.674140930176,11760986,73
1767763103,6457.337141036987,11760989,73
1767763103,6454.067627588908,11760995,73
1767763103,6454.548438390096,11761001,73
1767763103,6458.875735600789,11761010,73
1767763103,6466.039816538493,11761013,73
1767763103,6473.828951517741,11761018,73
1767763103,6479.93524869283,11761024,73
1767763103,6482.820113499959,11761031,73
1767763103,6481.618086496989,11761039,73
1767763103,6476.8580595652265,11761050,73
1767763103,6469.886302947998,11761055,73
1767763103,6462.722222010295,11761061,73
1767763103,6457.577546437581,11761070,73
1767763103,6456.231276194255,11761080,73
1767763103,6459.212303161621,11761088,73
1767763103,6465.510924657186,11761096,73
1767763103,6472.915410995483,11761103,73
1767763103,6478.685140609741,11761116,73
1767763103,6480.704545974731,11761121,73
1767763103,6478.252410888672,11761132,73
1767763103,6472.146113713582,11761141,73
1767763103,6465.078194936116,11761149,73
1767763103,6459.69311396281,11761162,73
1767763103,6457.7217896779375,11761172,73
1767763103,6459.0199788411455,11761181,73
1767763103,6461.616357167562,11761190,73
1767763103,6462.962627410889,11761199,73
1767763103,6461.375951766968,11761212,73
1767763103,6457.385222117106,11761219,73
1767763103,6453.298330307007,11761226,73
1767763103,6452.384789784749,11761236,73
1767763103,6457.24097887675,11761246,73
1767763103,6467.626492182414,11761259,73
1767763103,6480.704545974731,11761269,73
1767763103,6491.71511332194,11761277,73
1767763103,6496.427059173584,11761285,73
1767763103,6493.253707885742,11761294,73
1767763103,6484.40678914388,11761305,73
1767763103,6474.454005559285,11761311,73
1767763103,6468.58811378479,11761323,73
1767763103,6469.453573226929,11761334,73
1767763103,6476.088762283325,11761339,73
1767763103,6483.493248621623,11761352,73
1767763103,6485.801140467326,11761361,73
1767763103,6478.685140609741,11761370,73
1767763103,6462.145249048869,11761376,73
1767763103,6440.701087315877,11761385,73
1767763103,6421.180168787639,11761395,73
1767763103,6409.640709559123,11761404,73
1767763103,6408.679087956746,11761411,73
1767763103,6416.035493214925,11761415,73
1767763103,6425.98827679952,11761424,73
1767763103,6432.815790176392,11761436,73
1767763103,6433.29660097758,11761441,73
1767763103,6428.584655125936,11761450,73
1767763103,6422.71876335144,11761459,73
1767763103,6420.507033665975,11761464,73
1767763103,6424.305438995361,11761471,73
1767763103,6432.911952336629,11761479,73
1767763103,6442.528168360393,11761483,73
1767763103,6449.596087137858,11761492,73
1767763103,6454.5003573099775,11761500,73
1767763103,6462.193330128987,11761506,73
1767763103,6480.608383814494,11761511,73
1767763103,6516.140302022298,11761517,73
1767763103,6568.7890847524,11761522,73
1767763103,6629.419326782227,11761526,73
1767763103,6681.346893310547,11761531,73
1767763103,6705.916325251262,11761536,73
1767763103,6690.2899742126465,11761540,71
1767763103,6633.313894271851,11761543,71
1767763103,6547.7776527404785,11761551,71
1767763103,6456.712086995442,11761549,71
1767763103,6385.1674397786455,11761553,71
1767763103,6351.077953974406,11761556,71
1767763103,6359.107494354248,11761555,71
1767763103,6399.255196253459,11761556,71
1767763103,6452.240546544393,11761556,71
1767763103,6496.859788894653,11761557,71
1767763103,6518.784761428833,11761557,71
1767763103,6514.505545298259,11761557,71
1767763103,6491.138140360515,11761552,71
1767763103,6461.472113927205,11761553,71
1767763103,6437.720060348511,11761549,71
1767763103,6425.98827679952,11761547,71
1767763103,6425.122817357381,11761544,71
1767763103,6429.113547007243,11761536,71
1767763103,6430.988709131877,11761531,71
1767763103,6427.478790283203,11761527,71
1767763103,6419.978141784668,11761522,71
1767763103,6413.775682449341,11761516,71
1767763103,6414.160331090291,11761505,71
1767763103,6423.53614171346,11761498,71
1767763103,6439.547141393025,11761492,71
1767763103,6455.942789713542,11761483,71
1767763103,6466.18405977885,11761471,71
1767763103,6466.520627339681,11761462,71
1767763103,6458.106438318889,11761456,71
1767763103,6446.27849260966,11761442,71
1767763103,6438.345114390056,11761434,71
1767763103,6439.691384633382,11761423,71
1767763103,6451.759735743205,11761410,71
1767763103,6470.751762390137,11761398,71
1767763103,6489.888032277425,11761388,71
1767763103,6502.148707707723,11761375,71
1767763103,6503.0622482299805,11761357,71
1767763103,6492.772897084554,11761347,71
1767763103,6475.2233028411865,11761331,71
1767763103,6456.519762674968,11761320,71
1767763103,6442.191600799561,11761307,71
1767763103,6435.3640874226885,11761293,71
1767763103,6435.844898223877,11761283,71
1767763103,6441.326141357422,11761266,71
1767763104,6448.586384455363,11761253,71
1767763104,6454.596519470215,11761239,71
1767763104,6458.298762639363,11761229,71
1767763104,6460.07776260376,11761215,71
1767763104,6468.684275945027,11761181,71
1767763104,6475.752194722493,11761170,71
1767763104,6484.358708063762,11761152,71
1767763104,6493.205626805623,11761147,71
1767763104,6500.994761784871,11761137,71
1767763104,6506.572167078654,11761127,71
1767763104,6509.2166264851885,11761117,71
1767763104,6508.880058924357,11761109,71
1767763104,6506.33176167806,11761098,71
1767763104,6502.966086069743,11761093,71
1767763104,6500.321626663208,11761084,71
1767763104,6499.792734781901,11761082,71
1767763104,6501.7640590667725,11761071,71
1767763104,6505.754788716634,11761066,71
1767763104,6509.793599446614,11761063,71
1767763104,6511.476437250773,11761058,71
1767763104,6508.495410283406,11761055,71
1767763104,6499.84081586202,11761056,71
1767763104,6486.42619450887,11761048,71
1767763104,6470.703681310018,11761050,71
1767763104,6456.038951873779,11761045,71
1767763104,6445.653438568115,11761045,71
1767763104,6441.133817036946,11761044,71
1767763104,6442.480087280273,11761044,71
1767763104,6447.961330413818,11761046,71
1767763104,6455.269654591878,11761047,71
1767763104,6461.856762568156,11761050,71
1767763104,6466.4725462595625,11761052,71
1767763104,6469.117005666097,11761052,71
1767763104,6470.799843470256,11761060,71
1767763104,6472.578843434651,11761057,71
1767763104,6475.127140680949,11761063,71
1767763104,6478.252410888672,11761066,71
1767763104,6480.608383814494,11761073,71
1767763104,6480.944951375325,11761078,71
1767763104,6478.204329808553,11761084,71
1767763104,6472.482681274414,11761089,71
1767763104,6464.789708455403,11761092,71
1767763104,6456.7601680755615,11761099,71
1767763104,6450.124979019165,11761102,71
1767763104,6446.134249369304,11761111,71
1767763104,6444.739898045857,11761114,71
1767763104,6445.268789927165,11761124,71
1767763104,6446.518898010254,11761130,71
1767763104,6447.432438532512,11761136,71
1767763104,6447.48051961263,11761141,71
1767763104,6446.566979090373,11761151,71
1767763104,6445.364952087402,11761154,71
1767763104,6444.64373588562,11761163,71
1767763104,6445.02838452657,11761168,71
1767763104,6446.855465571086,11761179,71
1767763104,6449.884573618571,11761181,71
1767763104,6453.8272221883135,11761187,71
1767763104,6458.250681559245,11761193,71
1767763104,6462.962627410889,11761196,71
1767763104,6467.578411102295,11761203,71
1767763104,6471.905708312988,11761212,71
1767763104,6475.89643796285,11761216,71
1767763104,6479.406356811523,11761220,71
1767763104,6482.291221618652,11761226,71
1767763104,6484.310626983643,11761230,71
1767763104,6485.031843185425,11761233,71
1767763104,6484.02214050293,11761236,71
1767763104,6480.848789215088,11761245,71
1767763104,6475.271383921306,11761246,71
1767763104,6467.530330022176,11761249,71
1767763104,6458.539168039958,11761254,71
1767763104,6450.028816858928,11761258,71
1767763104,6443.682114283244,11761260,71
1767763104,6441.422303517659,11761263,71
1767763104,6443.874438603719,11761264,71
1767763104,6450.509627660115,11761266,71
1767763104,6459.548870722453,11761271,71
1767763104,6468.780438105266,11761273,71
1767763104,6476.136843363444,11761277,71
1767763104,6480.752627054851,11761276,71
1767763104,6483.156681060791,11761277,71
1767763104,6484.9356810251875,11761283,71
1767763104,6488.109032313029,11761283,71
1767763104,6493.6864376068115,11761288,71
1767763104,6501.04284286499,11761289,71
1767763104,6508.062680562337,11761287,71
1767763104,6511.668761571248,11761291,71
1767763104,6509.505112965901,11761294,71
1767763104,6470.847924550374,11761301,71
1767763104,6456.7601680755615,11761305,71
1767763104,6447.528600692749,11761307,71
1767763104,6444.451411565145,11761304,71
1767763104,6446.566979090373,11761310,71
1767763104,6451.278924942017,11761316,71
1767763104,6455.7985464731855,11761314,71
1767763104,6458.106438318889,11761319,71
1767763104,6457.577546437581,11761323,71
1767763104,6455.029249191284,11761326,71
1767763104,6451.95206006368,11761330,71
1767763104,6449.9326546986895,11761333,71
1767763104,6449.692249298096,11761339,71
1767763104,6451.182762781779,11761343,71
1767763104,6453.682978947957,11761345,71
1767763104,6456.4236005147295,11761350,71
1767763104,6458.875735600789,11761352,71
1767763104,6461.27978960673,11761358,71
1767763104,6463.828086853027,11761363,71
1767763104,6466.328303019206,11761367,71
1767763104,6468.3957894643145,11761372,71
1767763104,6469.213167826335,11761379,71
1767763104,6467.963059743245,11761381,71
1767763104,6464.597384134929,11761387,71
1767763104,6459.933519363403,11761392,71
1767763104,6455.510059992473,11761398,71
1767763104,6453.009843826294,11761403,71
1767763104,6453.58681678772,11761410,71
1767763104,6457.433303197225,11761417,71
1767763104,6463.347276051839,11761422,71
1767763104,6469.6939786275225,11761428,71
1767763104,6474.69441095988,11761436,71
1767763104,6477.627356847127,11761443,71
1767763104,6479.406356811523,11761448,71
1767763104,6481.714248657227,11761452,71
1767763104,6486.474275588989,11761459,71
1767763104,6494.263410568237,11761466,71
1767763104,6503.879626592,11761472,71
1767763104,6512.1495723724365,11761481,71
1767763104,6514.938275019328,11761482,71
1767763104,6508.831977844238,11761490,71
1767763104,6493.205626805623,11761496,71
1767763104,6470.415194829305,11761501,71
1767763104,6446.182330449422,11761505,71
1767763104,6427.142222722371,11761513,71
1767763104,6418.487628300984,11761515,71
1767763104,6421.853303909302,11761521,71
1767763104,6434.0658982594805,11761527,71
1767763104,6448.538303375244,11761532,71
1767763104,6457.866032918294,11761538,71
1767763104,6456.7601680755615,11761543,71
1767763104,6444.884141286214,11761548,71
1767763104,6426.757574081421,11761551,71
1767763104,6409.929196039836,11761556,71
1767763104,6401.22652053833,11761561,71
1767763104,6403.486331303914,11761562,71
1767763104,6414.3045743306475,11761567,71
1767763104,6426.997979482015,11761573,71
1767763104,6434.450546900432,11761577,71
1767763104,6433.585087458293,11761579,71
1767763104,6427.286465962728,11761586,71
1767763104,6425.363222757976,11761592,71
1767763104,6439.691384633382,11761591,71
1767763104,6478.637059529622,11761597,71
1767763104,6541.911760965983,11761600,71
1767763104,6618.216435114543,11761601,71
1767763104,6687.645514806111,11761604,71
1767763104,6728.466351826985,11761605,71
1767763104,6725.05259513855,11761602,74
1767763104,6674.7597853342695,11761611,74
1767763104,6589.079300562541,11761612,74
1767763104,6490.561167399089,11761611,74
1767763104,6405.217250188191,11761611,74
1767763104,6352.95311609904,11761611,74
1767763104,6341.654062271118,11761611,74
1767763104,6365.069548288981,11761607,74
1767763104,6406.755844751994,11761611,74
1767763104,6447.288195292155,11761611,74
1767763104,6471.905708312988,11761608,74
1767763104,6475.127140680949,11761603,74
1767763104,6461.424032847087,11761602,74
1767763104,6441.662708918254,11761594,74
1767763104,6427.334547042847,11761593,74
1767763104,6425.363222757976,11761589,74
1767763104,6435.508330663045,11761586,74
1767763104,6451.759735743205,11761584,74
1767763104,6465.318600336711,11761573,74
1767763104,6469.645897547404,11761566,74
1767763104,6462.962627410889,11761560,74
1767763104,6449.163357416789,11761555,74
1767763104,6435.075600941976,11761549,74
1767763104,6427.815357844035,11761540,74
1767763104,6430.988709131877,11761531,74
1767763104,6443.922519683838,11761521,74
1767763104,6461.568276087443,11761512,74
1767763104,6477.4831136067705,11761503,74
1767763104,6486.2338701883955,11761492,74
1767763104,6485.608816146851,11761479,74
1767763104,6477.194627126058,11761470,74
1767763104,6465.078194936116,11761457,74
1767763104,6454.356114069621,11761449,74
1767763104,6448.826789855957,11761432,74
1767763104,6449.740330378215,11761422,74
1767763104,6456.327438354492,11761407,74
1767763104,6465.991735458374,11761393,74
1767763104,6475.89643796285,11761382,74
1767763104,6484.02214050293,11761368,74
1767763104,6489.647626876831,11761350,74
1767763104,6493.205626805623,11761337,74
1767763104,6495.36927541097,11761325,74
1767763104,6496.61938349406,11761309,74
1767763104,6496.811707814534,11761295,74
1767763104,6495.225032170613,11761277,74
1767763104,6491.378545761108,11761264,74
1767763104,6484.791437784831,11761251,74
1767763104,6476.136843363444,11761240,74
1767763104,6466.5687084198,11761227,74
1767763104,6457.289059956868,11761209,74
1767763104,6449.836492538452,11761199,74
1767763104,6445.268789927165,11761182,74
1767763104,6444.162925084432,11761168,74
1767763104,6446.66314125061,11761155,74
1767763104,6452.817519505818,11761145,74
1767763104,6462.433735529582,11761132,74
1767763104,6474.742492039998,11761122,74
1767763104,6488.44559987386,11761113,74
1767763104,6501.42749150594,11761099,74
1767763104,6511.236031850179,11761091,74
1767763104,6515.467166900635,11761077,74
1767763104,6513.207356135051,11761073,74
1767763104,6504.745086034139,11761063,74
1767763104,6492.484410603841,11761055,74
1767763104,6479.93524869283,11761045,74
1767763104,6470.511356989543,11761040,74
1767763104,6466.664870580037,11761033,74
1767763104,6468.636194864909,11761023,74
1767763104,6474.502086639404,11761020,74
1767763104,6481.041113535563,11761018,74
1767763104,6484.743356704712,11761015,74
1767763104,6483.349005381267,11761010,74
1767763104,6476.136843363444,11761005,74
1767763104,6464.308897654216,11761002,74
1767763104,6450.75003306071,11760999,74
1767763104,6438.825925191243,11760998,74
1767763104,6431.517601013184,11760995,74
1767763104,6430.459817250569,11760994,74
1767763104,6436.277627944946,11760996,74
1767763104,6447.913249333699,11760993,74
1767763104,6463.251113891602,11760993,74
1767763104,6479.358275731404,11760992,74
1767763104,6493.109464645386,11760994,74
1767763104,6501.42749150594,11760996,74
1767763104,6502.052545547485,11760996,74
1767763104,6494.696140289307,11761000,74
1767763104,6480.416059494019,11761003,74
1767763104,6462.289492289226,11761002,74
1767763104,6444.739898045857,11761005,74
1767763104,6432.094573974609,11761006,74
1767763104,6427.863438924153,11761008,74
1767763104,6432.960033416748,11761010,74
1767763104,6446.086168289185,11761014,74
1767763104,6463.539600372314,11761016,74
1767763104,6480.560302734375,11761019,74
1767763105,6492.676734924316,11761021,74
1767763105,6496.811707814534,11761024,74
1767763105,6492.772897084554,11761024,74
1767763105,6481.906572977702,11761029,74
1767763105,6468.011140823364,11761031,74
1767763105,6454.885005950928,11761035,74
1767763105,6446.038087209065,11761034,74
1767763105,6443.153222401937,11761039,74
1767763105,6446.086168289185,11761043,74
1767763105,6452.961762746175,11761041,74
1767763105,6461.183627446492,11761044,74
1767763105,6468.20346514384,11761047,74
1767763105,6472.24227587382,11761050,74
1767763105,6473.011573155721,11761051,74
1767763105,6471.088329950969,11761054,74
1767763105,6468.251546223958,11761055,74
1767763105,6466.280221939087,11761059,74
1767763105,6466.4725462595625,11761060,74
1767763105,6469.117005666097,11761059,74
1767763105,6473.877032597859,11761064,74
1767763105,6480.031410853068,11761064,74
1767763105,6486.570437749227,11761065,74
1767763105,6492.772897084554,11761070,74
1767763105,6497.821410497029,11761066,74
1767763105,6501.283248265584,11761069,74
1767763105,6502.341032028198,11761073,74
1767763105,6500.513950983684,11761072,74
1767763105,6495.513518651326,11761070,74
1767763105,6487.820545832316,11761070,74
1767763105,6478.925546010335,11761075,74
1767763105,6470.751762390137,11761078,74
1767763105,6465.270519256592,11761082,74
1767763105,6463.635762532552,11761076,74
1767763105,6465.366681416829,11761080,74
1767763105,6468.636194864909,11761078,74
1767763105,6470.655600229899,11761080,74
1767763105,6469.501654307048,11761081,74
1767763105,6464.356978734334,11761082,74
1767763105,6456.856330235799,11761088,74
1767763105,6449.836492538452,11761085,74
1767763105,6446.182330449422,11761087,74
1767763105,6447.3362763722735,11761086,74
1767763105,6452.384789784749,11761090,74
1767763105,6458.250681559245,11761091,74
1767763105,6461.568276087443,11761097,74
1767763105,6460.222005844116,11761092,74
1767763105,6455.365816752116,11761098,74
1767763105,6450.75003306071,11761098,74
1767763105,6451.471249262492,11761099,74
1767763105,6461.375951766968,11761100,74
1767763105,6480.704545974731,11761103,74
1767763105,6504.937410354614,11761107,74
1767763105,6526.333491007487,11761109,74
1767763105,6536.911328633626,11761108,74
1767763105,6531.86281522115,11761114,74
1767763105,6511.764923731486,11761116,74
1767763105,6482.772032419841,11761116,74
1767763105,6453.779141108195,11761121,74
1767763105,6433.4408442179365,11761121,74
1767763105,6426.036357879639,11761128,74
1767763105,6430.796384811401,11761129,74
1767763105,6442.143519719441,11761130,74
1767763105,6453.15408706665,11761136,74
1767763105,6458.635330200195,11761138,74
1767763105,6457.433303197225,11761142,74
1767763105,6452.817519505818,11761146,74
1767763105,6449.692249298096,11761149,74
1767763105,6452.480951944987,11761154,74
1767763105,6462.145249048869,11761154,74
1767763105,6475.89643796285,11761158,74
1767763105,6488.4936809539795,11761159,74
1767763105,6495.032707850139,11761164,74
1767763105,6493.301788965861,11761163,74
1767763105,6485.031843185425,11761174,74
1767763105,6474.550167719523,11761175,74
1767763105,6467.193762461345,11761179,74
1767763105,6466.664870580037,11761179,74
1767763105,6473.251978556315,11761184,74
1767763105,6484.166383743286,11761187,74
1767763105,6494.840383529663,11761190,74
1767763105,6500.850518544515,11761193,74
1767763105,6499.311923980713,11761195,74
1767763105,6489.7918701171875,11761206,74
1767763105,6473.732789357503,11761207,74
1767763105,6454.067627588908,11761207,74
1767763105,6434.258222579956,11761208,74
1767763105,6418.102979660034,11761217,74
1767763105,6408.53484471639,11761216,74
1767763105,6407.957871754964,11761221,74
1767763105,6416.612466176351,11761222,74
1767763105,6432.286898295085,11761225,74
1767763105,6450.461546579997,11761228,74
1767763105,6464.885870615642,11761230,74
1767763105,6470.319032669067,11761236,74
1767763105,6464.789708455403,11761237,74
1767763105,6450.413465499878,11761243,74
1767763105,6433.729330698649,11761243,74
1767763105,6422.4302768707275,11761251,74
1767763105,6421.805222829183,11761252,74
1767763105,6431.950330734253,11761254,74
1767763105,6447.384357452393,11761254,74
1767763105,6459.500789642334,11761256,74
1767763105,6461.231708526611,11761263,74
1767763105,6452.240546544393,11761263,74
1767763105,6440.027952194214,11761268,74
1767763105,6438.15279006958,11761268,74
1767763105,6460.07776260376,11761267,74
1767763105,6511.524518330892,11761272,74
1767763105,6586.146354675293,11761274,74
1767763105,6665.191650390625,11761273,74
1767763105,6723.273595174153,11761275,74
1767763105,6738.226811091105,11761276,74
1767763105,6700.194676717122,11761279,72
1767763105,6616.4374351501465,11761273,72
1767763105,6509.841680526733,11761275,72
1767763105,6410.698493321736,11761279,72
1767763105,6345.596710840861,11761272,72
1767763105,6327.566305796306,11761277,72
1767763105,6352.472305297852,11761274,72
1767763105,6401.755412419637,11761279,72
1767763105,6451.086600621541,11761271,72
1767763105,6480.367978413899,11761268,72
1767763105,6481.137275695801,11761267,72
1767763105,6458.635330200195,11761267,72
1767763105,6427.526871363322,11761261,72
1767763105,6404.447952906291,11761262,72
1767763105,6400.216817855835,11761254,72
1767763105,6415.84316889445,11761251,72
1767763105,6442.912817001343,11761246,72
1767763105,6468.684275945027,11761240,72
1767763105,6482.050816218059,11761235,72
1767763105,6478.588978449504,11761227,72
1767763105,6461.904843648274,11761221,72
1767763105,6440.8934116363525,11761214,72
1767763105,6425.892114639282,11761208,72
1767763105,6423.488060633342,11761198,72
1767763105,6434.450546900432,11761188,72
1767763105,6453.779141108195,11761184,72
1767763105,6473.636627197266,11761173,72
1767763105,6487.1954917907715,11761169,72
1767763105,6491.041978200276,11761158,72
1767763105,6486.522356669108,11761147,72
1767763105,6478.300491968791,11761134,72
1767763105,6471.761465072632,11761123,72
1767763105,6470.9921677907305,11761116,72
1767763105,6476.71381632487,11761099,72
1767763105,6486.666599909465,11761089,72
1767763105,6496.523221333821,11761077,72
1767763105,6502.052545547485,11761067,72
1767763105,6500.562032063802,11761058,72
1767763105,6492.0516808827715,11761042,72
1767763105,6478.829383850098,11761032,72
1767763105,6464.453140894572,11761017,72
1767763105,6452.625195185344,11761007,72
1767763105,6445.893843968709,11760995,72
1767763105,6445.02838452657,11760985,72
1767763105,6448.826789855957,11760970,72
1767763105,6455.029249191284,11760958,72
1767763105,6460.943222045898,11760949,72
1767763105,6464.982032775879,11760939,72
1767763105,6466.664870580037,11760925,72
1767763105,6466.857194900513,11760915,72
1767763105,6467.386086781819,11760908,72
1767763105,6469.886302947998,11760891,72
1767763105,6475.511789321899,11760884,72
1767763105,6483.925978342692,11760873,72
1767763105,6493.542194366455,11760863,72
1767763105,6501.908302307129,11760856,72
1767763105,6506.860653559367,11760847,72
1767763105,6506.764491399129,11760840,72
1767763105,6501.667896906535,11760838,72
1767763105,6492.676734924316,11760828,72
1767763105,6481.95465405782,11760822,72
1767763105,6471.857627232869,11760819,72
1767763105,6464.50122197469,11760811,72
1767763105,6460.606654485066,11760804,72
1767763105,6460.173924763997,11760801,72
1767763105,6462.001005808513,11760799,72
1767763105,6464.068492253621,11760795,72
1767763105,6464.597384134929,11760792,72
1767763105,6462.626059850057,11760792,72
1767763105,6458.202600479126,11760791,72
1767763105,6452.721357345581,11760787,72
1767763105,6448.490222295125,11760789,72
1767763105,6448.153654734294,11760792,72
1767763105,6453.442573547363,11760788,72
1767763105,6464.741627375285,11760790,72
1767763105,6480.223735173543,11760795,72
1767763105,6496.2828159332275,11760797,72
1767763105,6508.35116704305,11760799,72
1767763105,6512.678464253743,11760802,72
1767763105,6507.341464360555,11760807,72
1767763105,6493.494113286336,11760810,72
1767763105,6474.598248799642,11760815,72
1767763105,6456.183195114136,11760824,72
1767763105,6443.201303482056,11760830,72
1767763105,6439.066330591838,11760834,72
1767763105,6443.826357523601,11760841,72
1767763105,6455.1254113515215,11760841,72
1767763105,6468.443870544434,11760850,72
1767763105,6479.021708170573,11760855,72
1767763105,6483.58941078186,11760865,72
1767763105,6481.041113535563,11760871,72
1767763105,6472.67500559489,11760881,72
1767763105,6461.472113927205,11760889,72
1767763105,6451.038519541423,11760891,72
1767763105,6443.874438603719,11760900,72
1767763105,6441.710789998372,11760910,72
1767763105,6444.162925084432,11760916,72
1767763105,6450.173060099284,11760925,72
1767763105,6457.673708597819,11760931,72
1767763105,6464.597384134929,11760937,72
1767763105,6469.261248906453,11760948,72
1767763105,6470.22287050883,11760956,72
1767763105,6467.001438140869,11760964,72
1767763105,6459.981600443522,11760971,72
1767763105,6450.701951980591,11760979,72
1767763105,6441.133817036946,11760989,72
1767763105,6433.777411778768,11760993,72
1767763105,6430.940628051758,11761004,72
1767763105,6433.777411778768,11761012,72
1767763105,6441.903114318848,11761019,72
1767763105,6453.394492467244,11761029,72
1767763105,6465.414762496948,11761033,72
1767763105,6475.175221761067,11761039,72
1767763105,6480.560302734375,11761047,72
1767763105,6481.137275695801,11761054,72
1767763105,6478.060086568196,11761061,72
1767763105,6473.540465037028,11761068,72
1767763105,6469.934384028117,11761076,72
1767763105,6469.309329986572,11761080,72
1767763105,6472.386519114177,11761085,72
1767763105,6478.540897369385,11761096,72
1767763105,6486.281951268514,11761101,72
1767763105,6493.734518686931,11761105,72
1767763105,6499.167680740356,11761111,72
1767763105,6501.7640590667725,11761119,72
1767763105,6501.331329345703,11761122,72
1767763105,6498.302221298218,11761129,72
1767763105,6493.6864376068115,11761136,72
1767763105,6488.541762034099,11761140,72
1767763105,6483.3009243011475,11761143,72
1767763105,6478.252410888672,11761149,72
1767763105,6472.9634920756025,11761155,72
1767763105,6467.145681381226,11761159,72
1767763105,6460.750897725423,11761166,72
1767763105,6454.596519470215,11761168,72
1767763105,6449.788411458333,11761173,72
1767763105,6447.961330413818,11761179,72
1767763105,6450.509627660115,11761186,72
1767763105,6457.529465357463,11761186,72
1767763106,6467.866897583008,11761195,72
1767763106,6478.73322168986,11761198,72
1767763106,6486.714680989583,11761199,72
1767763106,6488.8302485148115,11761208,72
1767763106,6483.829816182454,11761213,72
1767763106,6472.915410995483,11761210,72
1767763106,6459.164222081502,11761220,72
1767763106,6446.807384490967,11761224,72
1767763106,6439.5952224731445,11761230,72
1767763106,6439.450979232788,11761233,72
1767763106,6445.557276407878,11761240,72
1767763106,6455.22157351176,11761242,72
1767763106,6464.260816574097,11761250,72
1767763106,6469.597816467285,11761255,72
1767763106,6469.886302947998,11761258,72
1767763106,6466.328303019206,11761262,72
1767763106,6461.904843648274,11761271,72
1767763106,6459.789276123047,11761270,72
1767763106,6462.433735529582,11761277,72
1767763106,6469.982465108235,11761277,72
1767763106,6480.367978413899,11761287,72
1767763106,6489.936113357544,11761292,72
1767763106,6495.032707850139,11761298,72
1767763106,6493.397951126099,11761303,72
1767763106,6484.983762105306,11761307,72
1767763106,6471.953789393107,11761310,72
1767763106,6458.250681559245,11761318,72
1767763106,6447.769006093343,11761321,72
1767763106,6443.297465642293,11761327,72
1767763106,6445.124546686809,11761331,72
1767763106,6451.375087102254,11761337,72
1767763106,6458.731492360433,11761342,72
1767763106,6463.8761679331465,11761346,72
1767763106,6464.982032775879,11761356,72
1767763106,6462.674140930176,11761358,72
1767763106,6459.933519363403,11761362,72
1767763106,6460.654735565186,11761370,72
1767763106,6468.011140823364,11761375,72
1767763106,6482.146978378296,11761379,72
1767763106,6500.081221262614,11761385,72
1767763106,6515.996058781941,11761390,72
1767763106,6523.544788360596,11761397,72
1767763106,6518.159707387288,11761399,72
1767763106,6499.84081586202,11761405,72
1767763106,6473.05965423584,11761412,72
1767763106,6445.220708847046,11761416,72
1767763106,6424.113114674886,11761420,72
1767763106,6414.400736490886,11761424,72
1767763106,6415.84316889445,11761431,72
1767763106,6424.065033594768,11761433,72
1767763106,6432.527303695679,11761440,72
1767763106,6436.085303624471,11761445,72
1767763106,6433.633168538411,11761448,72
1767763106,6428.00768216451,11761451,72
1767763106,6424.497763315837,11761462,72
1767763106,6427.046060562134,11761459,72
1767763106,6435.74873606364,11761470,72
1767763106,6445.845762888591,11761472,72
1767763106,6450.413465499878,11761476,72
1767763106,6444.211006164551,11761480,72
1767763106,6427.671114603679,11761484,72
1767763106,6408.871412277222,11761485,72
1767763106,6400.745709737142,11761490,72
1767763106,6416.323979695638,11761489,72
1767763106,6461.904843648274,11761494,72
1767763106,6533.11292330424,11761497,72
1767763106,6614.129543304443,11761498,72
1767763106,6682.693163553874,11761499,72
1767763106,6718.032757441203,11761501,72
1767763106,6708.801190058391,11761501,72
1767763106,6656.9217046101885,11761502,72
1767763106,6577.587922414144,11761501,72
1767763106,6493.3498700459795,11761499,72
1767763106,6425.651709238688,11761502,72
1767763106,6388.196547826131,11761501,72
1767763106,6382.763385772705,11761498,72
1767763106,6400.793790817261,11761499,72
1767763106,6427.959601084392,11761492,72
1767763106,6450.942357381185,11761493,72
1767763106,6462.001005808513,11761488,72
1767763106,6460.654735565186,11761482,72
1767763106,6451.807816823323,11761481,72
1767763106,6442.432006200154,11761475,72
1767763106,6437.527736028035,11761467,72
1767763106,6438.585519790649,11761465,72
1767763106,6443.537871042888,11761456,72
1767763106,6448.6344655354815,11761449,72
1767763106,6450.798114140828,11761436,72
1767763106,6449.163357416789,11761432,72
1767763106,6444.787979125977,11761421,72
1767763106,6440.17219543457,11761416,72
1767763106,6437.431573867798,11761399,72
1767763106,6437.864303588867,11761387,72
1767763106,6441.133817036946,11761378,72
1767763106,6446.518898010254,11761365,72
1767763106,6452.8656005859375,11761354,72
1767763106,6459.3565464019775,11761339,72
1767763106,6464.982032775879,11761327,72
1767763106,6469.261248906453,11761313,72
1767763106,6471.184492111206,11761301,72
1767763106,6470.22287050883,11761288,72
1767763106,6466.712951660156,11761268,72
1767763106,6461.904843648274,11761256,72
1767763106,6457.817951838176,11761244,72
1767763106,6457.000573476155,11761227,72
1767763106,6460.46241124471,11761211,72
1767763106,6467.722654342651,11761196,72
1767763106,6475.944519042969,11761179,72
1767763106,6481.666167577107,11761166,72
1767763106,6482.002735137939,11761152,72
1767763106,6476.281086603801,11761136,72
1767763106,6466.328303019206,11761118,72
1767763106,6456.327438354492,11761102,72
1767763106,6450.509627660115,11761088,72
1767763106,6451.95206006368,11761078,72
1767763106,6460.895140965779,11761062,72
1767763106,6474.742492039998,11761044,72
1767763106,6489.118734995524,11761032,72
1767763106,6499.40808614095,11761014,72
1767763106,6503.254572550456,11761004,72
1767763106,6500.610113143921,11760993,72
1767763106,6493.782599767049,11760981,72
1767763106,6486.378113428752,11760969,72
1767763106,6481.618086496989,11760953,72
1767763106,6481.089194615682,11760943,72
1767763106,6484.647194544475,11760933,72
1767763106,6490.368843078613,11760924,72
1767763106,6495.9462483723955,11760909,72
1767763106,6499.360005060832,11760907,72
1767763106,6499.696572621663,11760899,72
1767763106,6497.100194295247,11760890,72
1767763106,6492.91714032491,11760882,72
1767763106,6488.301356633504,11760878,72
1767763106,6484.310626983643,11760872,72
1767763106,6481.329600016276,11760865,72
1767763106,6479.358275731404,11760864,72
1767763106,6477.963924407959,11760859,72
1767763106,6476.809978485107,11760851,72
1767763106,6476.088762283325,11760849,72
1767763106,6476.136843363444,11760852,72
1767763106,6477.4831136067705,11760851,72
1767763106,6480.031410853068,11760847,72
1767763106,6483.397086461385,11760847,72
1767763106,6486.137708028157,11760846,72
1767763106,6486.618518829346,11760843,72
1767763106,6483.252843221028,11760844,72
1767763106,6475.848356882731,11760847,72
1767763106,6464.885870615642,11760853,72
1767763106,6452.961762746175,11760854,72
1767763106,6442.912817001343,11760855,72
1767763106,6437.479654947917,11760861,72
1767763106,6438.248952229817,11760864,72
1767763106,6444.884141286214,11760871,72
1767763106,6455.269654591878,11760872,72
1767763106,6466.328303019206,11760878,72
1767763106,6475.271383921306,11760882,72
1767763106,6480.175654093425,11760887,72
1767763106,6480.848789215088,11760892,72
1767763106,6478.108167648315,11760897,72
1767763106,6473.5885461171465,11760903,72
1767763106,6468.684275945027,11760907,72
1767763106,6464.164654413859,11760912,72
1767763106,6460.222005844116,11760918,72
1767763106,6456.567843755086,11760925,72
1767763106,6453.346411387126,11760930,72
1767763106,6450.894276301066,11760936,72
1767763106,6449.788411458333,11760946,72
1767763106,6450.557708740234,11760950,72
1767763106,6452.673276265462,11760955,72
1767763106,6455.1254113515215,11760965,72
1767763106,6456.471681594849,11760968,72
1767763106,6455.510059992473,11760975,72
1767763106,6452.096303304036,11760977,72
1767763106,6447.09587097168,11760984,72
1767763106,6442.528168360393,11760994,72
1767763106,6440.460681915283,11760999,72
1767763106,6442.143519719441,11761004,72
1767763106,6447.528600692749,11761008,72
1767763106,6455.22157351176,11761012,72
1767763106,6463.203032811482,11761021,72
1767763106,6469.453573226929,11761026,72
1767763106,6472.67500559489,11761031,72
1767763106,6472.723086675008,11761037,72
1767763106,6470.511356989543,11761042,72
1767763106,6467.289924621582,11761050,72
1767763106,6464.50122197469,11761051,72
1767763106,6463.347276051839,11761056,72
1767763106,6464.693546295166,11761061,72
1767763106,6490.993897120158,11761082,72
1767763106,6496.042410532634,11761084,72
1767763106,6496.042410532634,11761090,72
1767763106,6489.743789037068,11761098,72
1767763106,6477.579275767009,11761098,72
1767763106,6462.193330128987,11761107,72
1767763106,6447.6728439331055,11761110,72
1767763106,6438.53743871053,11761114,72
1767763106,6437.527736028035,11761121,72
1767763106,6445.364952087402,11761121,72
1767763106,6459.548870722453,11761130,72
1767763106,6475.800275802612,11761132,72
1767763106,6489.503383636475,11761139,72
1767763106,6497.629086176555,11761143,72
1767763106,6499.696572621663,11761148,72
1767763106,6497.532924016316,11761158,72
1767763106,6493.926843007405,11761159,72
1767763106,6491.618951161702,11761164,72
1767763106,6491.378545761108,11761171,72
1767763106,6492.484410603841,11761177,72
1767763106,6492.820978164673,11761182,72
1767763106,6490.51308631897,11761185,72
1767763106,6484.887599945068,11761190,72
1767763106,6476.8580595652265,11761198,72
1767763106,6468.299627304077,11761203,72
1767763106,6461.327870686849,11761209,72
1767763106,6456.615924835205,11761214,72
1767763106,6453.923384348552,11761221,72
1767763106,6452.096303304036,11761226,72
1767763106,6450.124979019165,11761233,72
1767763106,6448.105573654175,11761244,72
1767763106,6447.3362763722735,11761247,72
1767763106,6450.028816858928,11761255,72
1767763106,6457.529465357463,11761259,72
1767763106,6470.0305461883545,11761269,72
1767763106,6485.079924265544,11761274,72
1767763106,6499.263842900594,11761279,72
1767763106,6508.399248123169,11761287,72
1767763106,6509.8897616068525,11761294,72
1767763106,6503.687302271525,11761300,72
1767763106,6492.292086283366,11761311,72
1767763106,6479.502518971761,11761315,72
1767763106,6469.309329986572,11761321,72
1767763106,6464.356978734334,11761329,72
1767763106,6465.1743570963545,11761337,72
1767763106,6470.174789428711,11761341,72
1767763106,6476.329167683919,11761351,72
1767763106,6480.896870295207,11761359,72
1767763106,6481.95465405782,11761367,72
1767763106,6479.502518971761,11761370,72
1767763106,6474.8867352803545,11761376,72
1767763106,6470.799843470256,11761389,72
1767763106,6469.790140787761,11761396,72
1767763106,6473.492383956909,11761400,72
1767763106,6481.714248657227,11761409,72
1767763106,6492.099761962891,11761415,72
1767763106,6500.850518544515,11761423,72
1767763106,6503.639221191406,11761436,72
1767763106,6497.629086176555,11761441,72
1767763106,6482.435464859009,11761451,72
1767763107,6460.798978805542,11761456,72
1767763107,6437.864303588867,11761465,72
1767763107,6419.545412063599,11761473,72
1767763107,6409.977277119954,11761479,72
1767763107,6410.16960144043,11761487,72
1767763107,6417.477925618489,11761499,72
1767763107,6426.853736241658,11761505,72
1767763107,6433.29660097758,11761516,72
1767763107,6433.729330698649,11761519,72
1767763107,6428.728898366292,11761527,72
1767763107,6421.51673634847,11761534,72
1767763107,6415.84316889445,11761546,72
1767763107,6413.727601369222,11761554,72
1767763107,6414.20841217041,11761560,72
1767763107,6414.352655410767,11761572,72
1767763107,6411.7081960042315,11761574,72
1767763107,6406.996250152588,11761584,72
1767763107,6405.890385309855,11761592,72
1767763107,6417.381763458252,11761598,72
1767763107,6450.2692222595215,11761603,72
1767763107,6507.485707600911,11761613,72
1767763107,6582.299868265788,11761617,72
1767763107,6658.941109975179,11761626,72
1767763107,6715.772946675618,11761630,72
1767763107,6733.995676040649,11761636,72
1767763107,6704.666217168172,11761644,72
1767763107,6633.6023807525635,11761651,72
1767763107,6539.796193440755,11761655,72
1767763107,6449.980735778809,11761658,72
1767763107,6388.100385665894,11761663,72
1767763107,6367.233196894328,11761666,72
1767763107,6385.119358698527,11761668,72
1767763107,6425.844033559163,11761670,72
1767763107,6467.338005701701,11761674,72
1767763107,6490.224599838257,11761673,72
1767763107,6485.512653986613,11761674,72
1767763107,6457.192897796631,11761677,72
1767763107,6419.112682342529,11761674,72
1767763107,6388.388872146606,11761675,72
1767763107,6377.66679128011,11761675,72
1767763107,6390.071709950765,11761671,72
1767763107,6419.06460126241,11761668,72
1767763107,6451.807816823323,11761667,72
1767763107,6475.271383921306,11761661,72
1767763107,6482.3393026987715,11761657,72
1767763107,6473.348140716553,11761653,72
1767763107,6455.654303232829,11761646,72
1767763107,6439.354817072551,11761641,72
1767763107,6432.719628016154,11761635,72
1767763107,6439.066330591838,11761628,72
1767763107,6455.558141072591,11761619,72
1767763107,6475.704113642375,11761609,72
1767763107,6492.244005203247,11761603,72
1767763107,6500.177383422852,11761590,72
1767763107,6498.783032099406,11761582,72
1767763107,6490.849653879802,11761571,72
1767763107,6480.608383814494,11761561,72
1767763107,6471.761465072632,11761549,72
1767763107,6465.943654378255,11761540,72
1767763107,6462.433735529582,11761526,72
1767763107,6458.971897761027,11761513,72
1767763107,6453.779141108195,11761504,72
1767763107,6446.3746547698975,11761491,72
1767763107,6438.393195470174,11761477,72
1767763107,6432.911952336629,11761465,72
1767763107,6432.671546936035,11761455,72
1767763107,6438.9701684316,11761441,72
1767763107,6450.75003306071,11761428,72
1767763107,6464.93395169576,11761417,72
1767763107,6477.53119468689,11761402,72
1767763107,6484.791437784831,11761393,72
1767763107,6485.128005345662,11761383,72
1767763107,6479.021708170573,11761373,72
1767763107,6469.501654307048,11761359,72
1767763107,6460.222005844116,11761350,72
1767763107,6454.259951909383,11761340,72
1767763107,6453.057924906413,11761332,72
1767763107,6456.038951873779,11761319,72
1767763107,6460.847059885661,11761315,72
1767763107,6464.789708455403,11761307,72
1767763107,6465.75133005778,11761296,72
1767763107,6463.203032811482,11761290,72
1767763107,6458.44300587972,11761284,72
1767763107,6453.8272221883135,11761276,72
1767763107,6452.000141143799,11761271,72
1767763107,6454.596519470215,11761269,72
1767763107,6461.568276087443,11761265,72
1767763107,6471.376816431682,11761265,72
1767763107,6481.473843256633,11761264,72
1767763107,6489.311059315999,11761263,72
1767763107,6493.109464645386,11761259,72
1767763107,6492.628653844197,11761257,72
1767763107,6489.022572835286,11761261,72
1767763107,6484.5991134643555,11761260,72
1767763107,6481.714248657227,11761260,72
1767763107,6481.95465405782,11761266,72
1767763107,6485.464572906494,11761265,72
1767763107,6490.7534917195635,11761268,72
1767763107,6495.561599731445,11761276,72
1767763107,6497.38868077596,11761276,72
1767763107,6494.455734888713,11761286,72
1767763107,6486.666599909465,11761284,72
1767763107,6475.415627161662,11761293,72
1767763107,6463.154951731364,11761300,72
1767763107,6452.7694384257,11761301,72
1767763107,6446.182330449422,11761312,72
1767763107,6444.211006164551,11761314,72
1767763107,6446.086168289185,11761322,72
1767763107,6450.653870900472,11761328,72
1767763107,6455.99087079366,11761336,72
1767763107,6461.568276087443,11761343,72
1767763107,6467.001438140869,11761350,72
1767763107,6472.434600194295,11761355,72
1767763107,6477.963924407959,11761362,72
1767763107,6482.964356740315,11761369,72
1767763107,6486.137708028157,11761378,72
1767763107,6485.993464787801,11761381,72
1767763107,6481.714248657227,11761390,72
1767763107,6473.684708277385,11761396,72
1767763107,6463.972330093384,11761404,72
1767763107,6455.413897832234,11761412,72
1767763107,6450.75003306071,11761413,72
1767763107,6450.942357381185,11761425,72
1767763107,6455.365816752116,11761426,72
1767763107,6461.520195007324,11761434,72
1767763107,6466.5687084198,11761439,72
1767763107,6467.914978663127,11761446,72
1767763107,6464.645465215047,11761450,72
1767763107,6457.817951838176,11761456,72
1767763107,6449.788411458333,11761455,72
1767763107,6443.00897916158,11761463,72
1767763107,6439.114411671956,11761466,72
1767763107,6438.777844111125,11761471,72
1767763107,6441.037654876709,11761477,72
1767763107,6444.932222366333,11761479,72
1767763107,6449.355681737264,11761483,72
1767763107,6453.731060028076,11761481,72
1767763107,6457.673708597819,11761485,72
1767763107,6460.702816645305,11761490,72
1767763107,6461.952924728394,11761490,72
1767763107,6460.654735565186,11761492,72
1767763107,6456.471681594849,11761495,72
1767763107,6450.221141179402,11761499,72
1767763107,6444.25908724467,11761497,72
1767763107,6441.999276479085,11761502,72
1767763107,6446.27849260966,11761503,72
1767763107,6458.298762639363,11761504,72
1767763107,6476.1849244435625,11761506,72
1767763107,6495.705842971802,11761507,72
1767763107,6511.1879507700605,11761506,72
1767763107,6517.919301986694,11761509,72
1767763107,6513.928572336833,11761508,72
1767763107,6501.090923945109,11761512,72
1767763107,6484.2625459035235,11761513,72
1767763107,6469.982465108235,11761513,72
1767763107,6463.106870651245,11761517,72
1767763107,6465.510924657186,11761514,72
1767763107,6474.838654200236,11761517,72
1767763107,6486.330032348633,11761518,72
1767763107,6494.119167327881,11761519,72
1767763107,6494.167248408,11761520,72
1767763107,6486.04154586792,11761521,72
1767763107,6472.6269245147705,11761521,72
1767763107,6459.308465321858,11761524,72
1767763107,6451.615492502849,11761529,72
1767763107,6452.8656005859375,11761528,72
1767763107,6463.106870651245,11761531,72
1767763107,6478.829383850098,11761536,72
1767763107,6494.455734888713,11761533,72
1767763107,6504.312356313069,11761534,72
1767763107,6504.889329274495,11761539,72
1767763107,6495.753924051921,11761538,72
1767763107,6479.93524869283,11761544,72
1767763107,6462.770303090413,11761548,72
1767763107,6449.884573618571,11761549,72
1767763107,6445.220708847046,11761551,72
1767763107,6449.788411458333,11761557,72
1767763107,6460.750897725423,11761559,72
1767763107,6473.155816396077,11761560,72
1767763107,6481.473843256633,11761569,72
1767763107,6481.95465405782,11761572,72
1767763107,6473.973194758098,11761577,72
1767763107,6460.510492324829,11761580,72
1767763107,6447.48051961263,11761584,72
1767763107,6440.5568440755205,11761587,72
1767763107,6443.153222401937,11761592,72
1767763107,6454.548438390096,11761597,72
1767763107,6470.126708348592,11761604,72
1767763107,6483.012437820435,11761608,72
1767763107,6487.483978271484,11761614,72
1767763107,6481.377681096395,11761615,72
1767763107,6467.289924621582,11761625,72
1767763107,6451.759735743205,11761626,72
1767763107,6442.23968187968,11761635,72
1767763107,6443.489789962769,11761642,72
1767763107,6455.365816752116,11761646,72
1767763107,6472.386519114177,11761649,72
1767763107,6486.137708028157,11761660,72
1767763107,6489.214897155762,11761665,72
1767763107,6478.348573048909,11761672,72
1767763107,6456.279357274373,11761676,72
1767763107,6430.1713307698565,11761687,72
1767763107,6408.582925796509,11761690,72
1767763107,6397.524277369182,11761695,72
1767763107,6397.957007090251,11761704,72
1767763107,6406.034628550212,11761706,72
1767763107,6415.6027634938555,11761713,72
1767763107,6421.180168787639,11761720,72
1767763107,6421.228249867757,11761729,72
1767763107,6417.718331019084,11761737,72
1767763107,6414.737304051717,11761740,72
1767763107,6414.785385131836,11761748,72
1767763107,6417.429844538371,11761755,72
1767763107,6419.112682342529,11761761,72
1767763107,6416.2758986155195,11761767,72
1767763107,6408.582925796509,11761774,72
1767763107,6401.61116917928,11761783,72
1767763107,6405.746142069499,11761785,72
1767763107,6432.094573974609,11761790,72
1767763107,6486.185789108276,11761794,72
1767763107,6563.211679458618,11761804,72
1767763107,6646.920839945476,11761809,72
1767763107,6714.186271031697,11761815,72
1767763107,6742.938756942749,11761822,72
1767763107,6721.39843304952,11761828,75
1767763107,6653.652191162109,11761834,75
1767763107,6558.932463328044,11761833,75
1767763107,6465.222438176473,11761839,75
1767763107,6398.966709772746,11761846,75
1767763107,6375.26273727417,11761847,75
1767763107,6393.148899078369,11761844,75
1767763107,6436.950763066609,11761843,75
1767763107,6483.925978342692,11761847,75
1767763107,6513.64008585612,11761846,75
1767763107,6516.044139862061,11761845,75
1767763107,6494.0230051676435,11761845,75
1767763107,6460.414330164592,11761842,75
1767763107,6431.181033452352,11761838,75
1767763107,6417.910655339559,11761837,75
1767763107,6423.680384953816,11761828,75
1767763107,6442.672411600749,11761827,75
1767763107,6464.356978734334,11761821,75
1767763107,6479.069789250691,11761811,75
1767763107,6482.291221618652,11761804,75
1767763107,6475.992600123088,11761798,75
1767763107,6466.809113820394,11761790,75
1767763107,6461.520195007324,11761775,75
1767763107,6463.73192469279,11761767,75
1767763107,6472.24227587382,11761753,75
1767763107,6481.858491897583,11761736,75
1767763108,6486.666599909465,11761727,75
1767763108,6483.156681060791,11761712,75
1767763108,6471.905708312988,11761694,75
1767763108,6457.192897796631,11761678,75
1767763108,6444.595654805501,11761660,75
1767763108,6438.393195470174,11761642,75
1767763108,6439.402898152669,11761625,75
1767763108,6445.220708847046,11761600,75
1767763108,6451.327006022136,11761578,75
1767763108,6454.1637897491455,11761562,75
1767763108,6452.192465464274,11761540,75
1767763108,6447.288195292155,11761519,75
1767763108,6442.720492680867,11761494,75
1767763108,6442.143519719441,11761475,75
1767763108,6447.3362763722735,11761452,75
1767763108,6457.192897796631,11761428,75
1767763108,6468.540032704671,11761407,75
1767763108,6477.050383885701,11761382,75
1767763108,6479.93524869283,11761360,75
1767763108,6476.377248764038,11761340,75
1767763108,6468.299627304077,11761317,75
1767763108,6459.116141001384,11761294,75
1767763108,6452.192465464274,11761273,75
1767763108,6450.028816858928,11761252,75
1767763108,6452.7694384257,11761233,75
1767763108,6459.116141001384,11761212,75
1767763108,6466.4725462595625,11761193,75
1767763108,6472.915410995483,11761175,75
1767763108,6477.435032526652,11761158,75
1767763108,6480.319897333781,11761142,75
1767763108,6482.868194580078,11761123,75
1767763108,6486.137708028157,11761112,75
1767763108,6490.945816040039,11761096,75
1767763108,6497.100194295247,11761080,75
1767763108,6503.591140111287,11761067,75
1767763108,6509.60127512614,11761054,75
1767763108,6514.313220977783,11761042,75
1767763108,6517.678896586101,11761038,75
1767763108,6520.179112752278,11761028,75
1767763108,6522.342761357625,11761021,75
1767763108,6524.025599161784,11761015,75
1767763108,6524.554491043091,11761010,75
1767763108,6523.063977559407,11761005,75
1767763108,6518.688599268596,11761001,75
1767763108,6511.476437250773,11760998,75
1767763108,6503.1103293101,11760998,75
1767763108,6495.657761891683,11760998,75
1767763108,6491.4266268412275,11761002,75
1767763108,6492.0516808827715,11760999,75
1767763108,6497.532924016316,11760998,75
1767763108,6506.091356277466,11761003,75
1767763108,6514.601707458496,11761008,75
1767763108,6519.938707351685,11761010,75
1767763108,6520.179112752278,11761015,75
1767763108,6515.178680419922,11761017,75
1767763108,6506.860653559367,11761026,75
1767763108,6498.20605913798,11761033,75
1767763108,6491.907437642415,11761036,75
1767763108,6489.359140396118,11761044,75
1767763108,6489.936113357544,11761049,75
1767763108,6491.522789001465,11761056,75
1767763108,6491.0900592803955,11761065,75
1767763108,6486.42619450887,11761065,75
1767763108,6476.954221725464,11761077,75
1767763108,6464.11657333374,11761078,75
1767763108,6450.990438461304,11761086,75
1767763108,6440.749168395996,11761095,75
1767763108,6435.460249582927,11761097,75
1767763108,6435.31600634257,11761106,75
1767763108,6438.441276550293,11761112,75
1767763108,6442.047357559204,11761119,75
1767763108,6443.249384562175,11761122,75
1767763108,6440.508762995402,11761125,75
1767763108,6434.49862798055,11761134,75
1767763108,6427.526871363322,11761138,75
1767763108,6422.814925511678,11761137,75
1767763108,6422.863006591797,11761144,75
1767763108,6428.392330805461,11761145,75
1767763108,6438.056627909343,11761149,75
1767763108,6448.9710330963135,11761151,75
1767763108,6457.817951838176,11761150,75
1767763108,6462.049086888631,11761156,75
1767763108,6460.750897725423,11761156,75
1767763108,6455.173492431641,11761160,75
1767763108,6447.817087173462,11761163,75
1767763108,6441.566546758016,11761159,75
1767763108,6438.489357630412,11761160,75
1767763108,6439.2586549123125,11761160,75
1767763108,6442.912817001343,11761163,75
1767763108,6447.720925013225,11761163,75
1767763108,6451.711654663086,11761162,75
1767763108,6453.58681678772,11761161,75
1767763108,6452.721357345581,11761159,75
1767763108,6449.9326546986895,11761159,75
1767763108,6446.566979090373,11761158,75
1767763108,6444.64373588562,11761158,75
1767763108,6445.653438568115,11761153,75
1767763108,6450.653870900472,11761155,75
1767763108,6460.07776260376,11761159,75
1767763108,6473.251978556315,11761156,75
1767763108,6488.87832959493,11761153,75
1767763108,6504.456599553426,11761152,75
1767763108,6517.871220906575,11761152,75
1767763108,6526.910463968913,11761152,75
1767763108,6530.420382817586,11761153,75
1767763108,6528.208653132121,11761150,75
1767763108,6521.284977595012,11761152,75
1767763108,6511.043707529704,11761150,75
1767763108,6499.215761820476,11761150,75
1767763108,6487.243572870891,11761153,75
1767763108,6475.752194722493,11761153,75
1767763108,6465.414762496948,11761156,75
1767763108,6456.471681594849,11761156,75
1767763108,6449.451843897502,11761160,75
1767763108,6445.124546686809,11761162,75
1767763108,6444.162925084432,11761162,75
1767763108,6446.66314125061,11761165,75
1767763108,6452.144384384155,11761169,75
1767763108,6459.26038424174,11761171,75
1767763108,6466.5687084198,11761174,75
1767763108,6472.771167755127,11761178,75
1767763108,6477.002302805583,11761180,75
1767763108,6479.55060005188,11761182,75
1767763108,6483.685572942098,11761198,75
1767763108,6484.2625459035235,11761202,75
1767763108,6482.916275660197,11761202,75
1767763108,6478.637059529622,11761210,75
1767763108,6471.6653029123945,11761216,75
1767763108,6463.539600372314,11761221,75
1767763108,6457.289059956868,11761224,75
1767763108,6455.702384312947,11761233,75
1767763108,6460.558573404948,11761237,75
1767763108,6471.232573191325,11761241,75
1767763108,6484.5991134643555,11761249,75
1767763108,6495.802005132039,11761257,75
1767763108,6500.081221262614,11761260,75
1767763108,6494.744221369426,11761266,75
1767763108,6480.271816253662,11761273,75
1767763108,6460.510492324829,11761279,75
1767763108,6441.278060277303,11761284,75
1767763108,6428.00768216451,11761294,75
1767763108,6423.824628194173,11761300,75
1767763108,6428.488492965698,11761306,75
1767763108,6438.585519790649,11761314,75
1767763108,6449.49992497762,11761321,75
1767763108,6457.192897796631,11761325,75
1767763108,6460.414330164592,11761333,75
1767763108,6460.750897725423,11761341,75
1767763108,6461.760600407918,11761346,75
1767763108,6466.376384099324,11761353,75
1767763108,6475.415627161662,11761359,75
1767763108,6486.8589242299395,11761364,75
1767763108,6496.234734853108,11761375,75
1767763108,6499.119599660237,11761382,75
1767763108,6492.965221405029,11761388,75
1767763108,6478.637059529622,11761394,75
1767763108,6460.414330164592,11761401,75
1767763108,6443.682114283244,11761407,75
1767763108,6432.863871256511,11761415,75
1767763108,6429.305871327718,11761418,75
1767763108,6431.229114532471,11761428,75
1767763108,6434.787114461263,11761433,75
1767763108,6436.758438746135,11761442,75
1767763108,6435.556411743164,11761446,75
1767763108,6432.286898295085,11761455,75
1767763108,6429.305871327718,11761461,75
1767763108,6428.392330805461,11761468,75
1767763108,6429.161628087361,11761471,75
1767763108,6429.498195648193,11761475,75
1767763108,6426.997979482015,11761483,75
1767763108,6422.045628229777,11761493,75
1767763108,6419.208844502767,11761492,75
1767763108,6426.661411921184,11761502,75
1767763108,6453.346411387126,11761506,75
1767763108,6503.639221191406,11761512,75
1767763108,6573.356787363688,11761518,75
1767763108,6648.74792098999,11761523,75
1767763108,6709.907054901123,11761525,75
1767763108,6737.313270568848,11761526,75
1767763108,6719.234784444173,11761528,72
1767763108,6657.114028930664,11761538,72
1767763108,6566.192706425984,11761535,72
1767763108,6470.270951588948,11761536,72
1767763108,6393.870115280151,11761538,72
1767763108,6353.0973593393965,11761540,72
1767763108,6351.029872894287,11761541,72
1767763108,6377.7148723602295,11761542,72
1767763108,6415.554682413737,11761542,72
1767763108,6446.855465571086,11761541,72
1767763108,6460.606654485066,11761539,72
1767763108,6455.317735671997,11761537,72
1767763108,6438.2970333099365,11761534,72
1767763108,6420.218547185262,11761531,72
1767763108,6410.025358200073,11761530,72
1767763108,6411.323547363281,11761520,72
1767763108,6421.709060668945,11761513,72
1767763108,6435.31600634257,11761511,72
1767763108,6446.518898010254,11761504,72
1767763108,6452.625195185344,11761500,72
1767763108,6454.5003573099775,11761489,72
1767763108,6455.22157351176,11761479,72
1767763108,6457.481384277344,11761477,72
1767763108,6461.7125193278,11761463,72
1767763108,6466.087897618611,11761453,72
1767763108,6467.722654342651,11761440,72
1767763108,6464.8377895355225,11761431,72
1767763108,6458.346843719482,11761420,72
1767763108,6451.807816823323,11761405,72
1767763108,6449.548006057739,11761392,72
1767763108,6454.5003573099775,11761379,72
1767763108,6466.18405977885,11761367,72
1767763108,6480.944951375325,11761349,72
1767763108,6492.965221405029,11761335,72
1767763108,6497.484842936198,11761321,72
1767763108,6492.53249168396,11761307,72
1767763108,6480.031410853068,11761291,72
1767763108,6464.885870615642,11761276,72
1767763108,6452.721357345581,11761259,72
1767763108,6447.720925013225,11761247,72
1767763108,6450.653870900472,11761226,72
1767763108,6459.548870722453,11761211,72
1767763108,6470.559438069661,11761195,72
1767763108,6480.031410853068,11761177,72
1767763108,6485.945383707683,11761163,72
1767763108,6488.301356633504,11761145,72
1767763108,6488.637924194336,11761130,72
1767763108,6488.4936809539795,11761115,72
1767763108,6488.589843114217,11761099,72
1767763108,6488.686005274455,11761083,72
1767763108,6487.5320593516035,11761071,72
1767763108,6484.118302663167,11761057,72
1767763108,6478.444735209147,11761042,72
1767763108,6471.6653029123945,11761032,72
1767763108,6465.895573298137,11761018,72
1767763108,6463.106870651245,11761003,72
1767763108,6463.972330093384,11760987,72
1767763108,6467.866897583008,11760975,72
1767763108,6472.771167755127,11760965,72
1767763108,6476.329167683919,11760956,72
1767763108,6476.617654164632,11760944,72
1767763108,6473.107735315959,11760938,72
1767763108,6467.001438140869,11760930,72
1767763108,6460.702816645305,11760923,72
1767763108,6457.192897796631,11760916,72
1767763108,6458.298762639363,11760908,72
1767763108,6464.54930305481,11760900,72
1767763108,6474.742492039998,11760894,72
1767763108,6486.137708028157,11760888,72
1767763109,6495.753924051921,11760881,72
1767763109,6500.994761784871,11760879,72
1767763109,6500.513950983684,11760878,72
1767763109,6494.792302449544,11760872,72
1767763109,6485.608816146851,11760871,72
1767763109,6475.848356882731,11760864,72
1767763109,6467.963059743245,11760863,72
1767763109,6463.539600372314,11760865,72
1767763109,6462.91454633077,11760867,72
1767763109,6464.789708455403,11760861,72
1767763109,6467.338005701701,11760857,72
1767763109,6468.347708384196,11760861,72
1767763109,6466.616789499919,11760862,72
1767763109,6462.09716796875,11760863,72
1767763109,6456.375519434611,11760861,72
1767763109,6451.807816823323,11760867,72
1767763109,6450.894276301066,11760866,72
1767763109,6455.077330271403,11760867,72
1767763109,6464.308897654216,11760868,72
1767763109,6476.71381632487,11760868,72
1767763109,6489.359140396118,11760872,72
1767763109,6498.975356419881,11760875,72
1767763109,6503.158410390218,11760877,72
1767763109,6501.47557258606,11760881,72
1767763109,6495.705842971802,11760883,72
1767763109,6488.782167434692,11760881,72
1767763109,6484.166383743286,11760884,72
1767763109,6483.877897262573,11760887,72
1767763109,6488.1571133931475,11760888,72
1767763109,6494.6480592091875,11760889,72
1767763109,6499.84081586202,11760891,72
1767763109,6500.321626663208,11760895,72
1767763109,6494.071086247762,11760896,72
1767763109,6481.858491897583,11760895,72
1767763109,6466.616789499919,11760898,72
1767763109,6452.673276265462,11760896,72
1767763109,6443.874438603719,11760898,72
1767763109,6441.999276479085,11760899,72
1767763109,6446.230411529541,11760901,72
1767763109,6453.442573547363,11760903,72
1767763109,6460.029681523641,11760904,72
1767763109,6463.058789571126,11760900,72
1767763109,6461.760600407918,11760902,72
1767763109,6457.529465357463,11760902,72
1767763109,6453.298330307007,11760903,72
1767763109,6452.000141143799,11760904,72
1767763109,6455.173492431641,11760903,72
1767763109,6462.577978769938,11760900,72
1767763109,6472.049951553345,11760901,72
1767763109,6481.137275695801,11760900,72
1767763109,6487.483978271484,11760900,72
1767763109,6490.176518758138,11760900,72
1767763109,6489.262978235881,11760896,72
1767763109,6485.753059387207,11760897,72
1767763109,6480.560302734375,11760896,72
1767763109,6474.742492039998,11760898,72
1767763109,6468.58811378479,11760898,72
1767763109,6462.866465250651,11760897,72
1767763109,6458.346843719482,11760895,72
1767763109,6455.7985464731855,11760896,72
1767763109,6456.038951873779,11760894,72
1767763109,6458.44300587972,11760894,72
1767763109,6461.568276087443,11760895,72
1767763109,6462.770303090413,11760893,72
1767763109,6460.07776260376,11760890,72
1767763109,6452.577114105225,11760895,72
1767763109,6441.999276479085,11760895,72
1767763109,6431.758006413777,11760890,72
1767763109,6426.180601119995,11760890,72
1767763109,6428.296168645223,11760892,72
1767763109,6438.6336008707685,11760889,72
1767763109,6454.211870829265,11760893,72
1767763109,6469.934384028117,11760892,72
1767763109,6480.512221654256,11760890,72
1767763109,6482.723951339722,11760893,72
1767763109,6477.242708206177,11760898,72
1767763109,6467.4341678619385,11760896,72
1767763109,6458.587249120076,11760897,72
1767763109,6454.933087031047,11760899,72
1767763109,6474.982897440593,11760903,72
1767763109,6471.472978591919,11760908,72
1767763109,6463.106870651245,11760909,72
1767763109,6454.356114069621,11760914,72
1767763109,6449.836492538452,11760914,72
1767763109,6452.913681666057,11760915,72
1767763109,6463.154951731364,11760920,72
1767763109,6477.09846496582,11760925,72
1767763109,6489.4553025563555,11760928,72
1767763109,6495.657761891683,11760929,72
1767763109,6494.119167327881,11760933,72
1767763109,6486.378113428752,11760932,72
1767763109,6476.425329844157,11760938,72
1767763109,6468.636194864909,11760942,72
1767763109,6465.510924657186,11760945,72
1767763109,6467.001438140869,11760948,72
1767763109,6470.415194829305,11760952,72
1767763109,6472.578843434651,11760959,72
1767763109,6471.088329950969,11760959,72
1767763109,6465.607086817424,11760968,72
1767763109,6457.817951838176,11760970,72
1767763109,6450.413465499878,11760973,72
1767763109,6445.845762888591,11760979,72
1767763109,6445.4130331675215,11760982,72
1767763109,6449.259519577026,11760987,72
1767763109,6456.808249155681,11760990,72
1767763109,6467.530330022176,11760993,72
1767763109,6481.137275695801,11761000,72
1767763109,6497.00403213501,11761006,72
1767763109,6513.495842615764,11761010,72
1767763109,6527.487436930339,11761013,72
1767763109,6535.13232866923,11761019,72
1767763109,6532.824436823527,11761027,72
1767763109,6519.554058710734,11761031,72
1767763109,6497.484842936198,11761038,72
1767763109,6471.617221832275,11761037,72
1767763109,6448.153654734294,11761049,72
1767763109,6431.758006413777,11761054,72
1767763109,6423.776547114055,11761057,72
1767763109,6422.189871470134,11761062,72
1767763109,6422.71876335144,11761067,72
