timestamp,Channel 1,Channel 2,Channel 3
1767764422,6657.979488372803,13091823,72
1767764422,6661.585569381714,13091866,72
1767764422,6659.421920776367,13091910,72
1767764422,6653.507947921753,13091957,72
1767764422,6646.968921025594,13092006,72
1767764422,6642.449299494426,13092058,72
1767764422,6641.199191411336,13092106,72
1767764422,6644.228299458821,13092312,72
1767764422,6641.3915157318115,13092363,72
1767764422,6638.506650924683,13092413,72
1767764422,6637.4969482421875,13092466,72
1767764422,6639.85292116801,13092519,72
1767764422,6665.960947672526,13092664,72
1767764422,6674.615542093913,13092707,72
1767764422,6678.702433904012,13092751,72
1767764422,6676.106055577596,13092792,72
1767764422,6666.826407114665,13092835,72
1767764422,6652.642488479614,13092874,72
1767764422,6637.016137440999,13092907,72
1767764422,6624.130407969157,13092943,72
1767764422,6617.639462153117,13092976,72
1767764422,6619.274218877156,13093001,72
1767764422,6628.169218699138,13093023,72
1767764422,6640.814542770386,13093047,72
1767764422,6652.546326319377,13093067,72
1767764422,6659.470001856486,13093084,72
1767764422,6660.575866699219,13093096,72
1767764422,6657.835245132446,13093111,72
1767764422,6655.431191126506,13093112,72
1767764422,6657.835245132446,13093121,72
1767764422,6667.403380076091,13093118,72
1767764422,6682.645082473755,13093123,72
1767764422,6698.752244313558,13093120,72
1767764422,6708.945433298747,13093108,72
1767764422,6707.695325215657,13093103,72
1767764422,6693.415244420369,13093094,72
1767764422,6669.807434082031,13093081,72
1767764422,6644.180218378703,13093061,72
1767764422,6624.851624170939,13093046,72
1767764422,6617.014408111572,13093027,72
1767764422,6621.437867482503,13093001,72
1767764422,6633.74662399292,13092977,72
1767764422,6646.680434544881,13092953,72
1767764422,6653.459866841634,13092924,72
1767764422,6650.575002034505,13092896,72
1767764422,6639.708677927653,13092867,72
1767764422,6626.294056574504,13092840,72
1767764422,6636.58340771993,13092711,72
1767764422,6648.267110188802,13092676,72
1767764422,6653.652191162109,13092648,72
1767764422,6649.757623672485,13092610,72
1767764422,6637.1603806813555,13092580,72
1767764422,6619.610786437988,13092546,72
1767764422,6602.253516515096,13092515,72
1767764422,6590.089003245036,13092483,72
1767764422,6587.059895197551,13092450,72
1767764422,6595.858732859294,13092423,72
1767764422,6618.456840515137,13092395,72
1767764422,6655.912001927693,13092369,72
1767764422,6707.022190093994,13092337,72
1767764422,6767.171621322632,13092303,72
1767764422,6826.792160669963,13092278,72
1767764422,6873.094240824382,13092256,72
1767764422,6892.663240432739,13092227,72
1767764422,6875.786781311035,13092204,75
1767764422,6820.445458094279,13092183,75
1767764422,6735.0053787231445,13092159,75
1767764422,6636.727650960286,13092138,75
1767764422,6547.152598698934,13092115,75
1767764422,6485.849221547444,13092094,75
1767764422,6463.443438212077,13092075,75
1767764422,6478.685140609741,13092058,75
1767764422,6519.698301951091,13092038,75
1767764422,6568.741003672282,13092025,75
1767764422,6608.455975850423,13092018,75
1767764422,6628.457705179851,13091997,75
1767764422,6627.25567817688,13091989,75
1767764422,6612.398624420166,13091977,75
1767764422,6595.570246378581,13091967,75
1767764422,6587.444543838501,13091954,75
1767764422,6593.262354532878,13091949,75
1767764422,6611.148516337077,13091939,75
1767764422,6633.842786153157,13091930,75
1767764422,6652.690569559733,13091929,75
1767764422,6661.200920740764,13091925,75
1767764422,6657.69100189209,13091920,75
1767764422,6645.478407541911,13091917,75
1767764422,6631.198326746623,13091918,75
1767764422,6621.9667593638105,13091917,75
1767764422,6621.918678283691,13091918,75
1767764422,6631.438732147217,13091918,75
1767764422,6646.872758865356,13091923,75
1767764422,6662.4510288238525,13091928,75
1767764422,6673.173109690349,13091933,75
1767764422,6675.913731257121,13091933,75
1767764422,6670.5286502838135,13091942,75
1767764422,6659.229596455892,13091949,75
1767764422,6645.766894022624,13091959,75
1767764422,6633.74662399292,13091967,75
1767764422,6625.957489013672,13091975,75
1767764422,6623.216867446899,13091989,75
1767764422,6624.899705251058,13091993,75
1767764422,6629.803975423177,13092006,75
1767764422,6636.58340771993,13092022,75
1767764422,6644.564867019653,13092036,75
1767764422,6687.501271565755,13092099,75
1767764422,6695.386568705241,13092117,75
1767764422,6702.694892883301,13092134,75
1767764422,6709.61856842041,13092145,75
1767764422,6716.830730438232,13092158,75
1767764422,6724.331378936768,13092175,75
1767764422,6731.880108515422,13092190,75
1767764422,6738.178730010986,13092204,75
1767764422,6742.025216420491,13092215,75
1767764422,6742.698351542155,13092223,75
1767764422,6740.246216456096,13092234,75
1767764422,6735.9670003255205,13092242,75
1767764422,6731.687784194946,13092248,75
1767764422,6729.620297749837,13092262,75
1767764422,6738.755702972412,13092282,75
1767764422,6738.611459732056,13092283,75
1767764422,6730.822324752808,13092290,75
1767764422,6713.416973749797,13092290,75
1767764422,6687.934001286824,13092297,75
1767764422,6603.263219197591,13092290,75
1767764422,6606.676975886027,13092287,75
1767764422,6617.783705393474,13092284,75
1767764422,6629.852056503296,13092276,75
1767764422,6636.343002319336,13092271,75
1767764422,6633.217732111613,13092263,75
1767764422,6619.94735399882,13092257,75
1767764422,6600.186030069987,13092246,75
1767764422,6580.088138580322,13092239,75
1767764422,6566.336949666341,13092225,75
1767764422,6563.692490259807,13092219,75
1767764422,6573.501030604045,13092206,75
1767764422,6592.877705891927,13092202,75
1767764422,6616.197029749553,13092187,75
1767764422,6637.112299601237,13092178,75
1767764422,6650.719245274861,13092167,75
1767764422,6654.950380325317,13092154,75
1767764422,6650.8154074351,13092149,75
1767764422,6641.487677892049,13092139,75
1767764422,6631.534894307454,13092124,75
1767764422,6624.80354309082,13092124,75
1767764422,6623.2649485270185,13092114,75
1767764422,6626.919110616048,13092113,75
1767764422,6633.506218592326,13092107,75
1767764422,6640.381813049316,13092101,75
1767764422,6645.141839981079,13092102,75
1767764422,6646.391948064168,13092101,75
1767764422,6644.228299458821,13092103,75
1767764422,6639.564434687297,13092105,75
1767764422,6634.467840194702,13092113,75
1767764422,6630.813678105672,13092114,75
1767764422,6630.09246190389,13092122,75
1767764422,6632.881164550781,13092136,75
1767764422,6638.410488764445,13092149,75
1767764422,6645.670731862386,13092165,75
1767764422,6653.267542521159,13092181,75
1767764422,6660.046974817912,13092203,75
1767764422,6665.432055791219,13092223,75
1767764422,6669.278542200725,13092246,75
1767764422,6672.019163767497,13092271,75
1767764422,6674.471298853557,13092297,75
1767764422,6676.971515019734,13092333,75
1767764422,6679.135163625081,13092364,75
1767764422,6679.9525419871015,13092398,75
1767764422,6678.173542022705,13092441,75
1767764422,6673.173109690349,13092477,75
1767764422,6665.335893630981,13092522,75
1767764422,6656.152407328288,13092562,75
1767764422,6647.690137227376,13092603,75
1767764422,6642.6897048950195,13092648,75
1767764422,6642.545461654663,13092695,75
1767764422,6647.305488586426,13092743,75
1767764422,6654.950380325317,13092790,75
1767764422,6662.354866663615,13092833,75
1767764422,6666.153271993001,13092882,75
1767764422,6664.326190948486,13092931,75
1767764422,6656.9217046101885,13092981,75
1767764422,6646.055380503337,13093033,75
1767764422,6635.044813156128,13093077,75
1767764422,6627.399921417236,13093129,75
1767764422,6625.957489013672,13093174,75
1767764422,6631.150245666504,13093223,75
1767764422,6641.151110331218,13093267,75
1767764422,6652.498245239258,13093314,75
1767764422,6661.34516398112,13093355,75
1767764422,6664.903163909912,13093392,75
1767764422,6662.402947743733,13093433,75
1767764423,6655.046542485555,13093470,75
1767764423,6645.622650782268,13093506,75
1767764423,6637.545029322307,13093535,75
1767764423,6633.74662399292,13093565,75
1767764423,6635.429461797078,13093588,75
1767764423,6641.776164372762,13093610,75
1767764423,6662.787596384685,13093664,75
1767764423,6663.893461227417,13093681,75
1767764423,6662.306785583496,13093690,75
1767764423,6660.143136978149,13093699,75
1767764423,6659.8546504974365,13093697,75
1767764423,6662.835677464803,13093698,75
1767764423,6668.701569239299,13093696,75
1767764423,6675.481001536052,13093693,75
1767764423,6680.00062306722,13093683,75
1767764423,6679.808298746745,13093678,75
1767764423,6673.798163731893,13093661,75
1767764423,6663.220326105754,13093653,75
1767764423,6650.8154074351,13093639,75
1767764423,6639.85292116801,13093624,75
1767764423,6632.688840230306,13093611,75
1767764423,6630.284786224365,13093592,75
1767764423,6631.582975387573,13093569,75
1767764423,6634.179353713989,13093548,75
1767764423,6635.189056396484,13093530,75
1767764423,6633.169651031494,13093506,75
1767764423,6627.976894378662,13093483,75
1767764423,6621.341705322266,13093461,75
1767764423,6615.716218948364,13093441,75
1767764423,6612.8794352213545,13093417,75
1767764423,6625.043948491414,13093354,75
1767764423,6630.429029464722,13093328,75
1767764423,6631.9676240285235,13093314,75
1767764423,6628.217299779256,13093293,75
1767764423,6619.658867518107,13093276,75
1767764423,6609.513759613037,13093258,75
1767764423,6602.92665163676,13093243,75
1767764423,6606.821219126384,13093226,75
1767764423,6627.303759256999,13093210,75
1767764423,6668.076515197754,13093196,75
1767764423,6727.264324824016,13093183,75
1767764423,6796.88572883606,13093172,75
1767764423,6863.189538319905,13093165,75
1767764423,6909.780104955037,13093152,75
1767764423,6921.992699305217,13093142,75
1767764423,6892.134348551433,13093130,81
1767764423,6822.1282958984375,13093124,81
1767764423,6724.379460016887,13093120,81
1767764423,6618.6972459157305,13093114,81
1767764423,6526.862382888794,13093102,81
1767764423,6466.424465179443,13093095,81
1767764423,6445.701519648234,13093080,81
1767764423,6461.616357167562,13093068,81
1767764423,6502.581437428792,13093059,81
1767764423,6630.621353785197,13092989,81
1767764423,6620.76473236084,13092968,81
1767764423,6611.629327138265,13092947,81
1767764423,6607.39819208781,13092923,81
1767764423,6608.696381251018,13092901,81
1767764423,6651.584704717,13092715,81
1767764423,6660.287380218506,13092682,81
1767764423,6667.499542236328,13092645,81
1767764423,6669.999758402507,13092551,81
1767764423,6664.470434188843,13092508,81
1767764423,6656.633218129476,13092466,81
1767764423,6649.036407470703,13092418,81
1767764423,6643.555164337158,13092368,81
1767764423,6640.526056289673,13092319,81
1767764423,6638.698975245158,13092263,81
1767764423,6636.294921239217,13092212,81
1767764423,6631.823380788167,13092161,81
1767764423,6625.476678212483,13092112,81
1767764423,6618.841489156087,13092054,81
1767764423,6615.283489227295,13092000,81
1767764423,6617.639462153117,13091941,81
1767764423,6627.544164657593,13091887,81
1767764423,6644.084056218465,13091834,81
1767764423,6663.941542307536,13091776,81
1767764423,6682.933568954468,13091727,81
1767764423,6697.45405515035,13091667,81
1767764423,6705.724000930786,13091623,81
1767764423,6708.705027898152,13091566,81
1767764423,6708.993514378865,13091512,81
1767764423,6710.195541381836,13091464,81
1767764423,6715.436379114787,13091412,81
1767764423,6725.533405939738,13091366,81
1767764423,6738.851865132649,13091315,81
1767764423,6751.881837844849,13091269,81
1767764423,6760.728756586711,13091216,81
1767764423,6762.651999791463,13091171,81
1767764423,6757.314999898274,13091127,81
1767764423,6746.304432551066,13091082,81
1767764423,6732.793649037679,13091046,81
1767764423,6720.19640604655,13091001,81
1767764423,6711.0129197438555,13090964,81
1767764423,6705.772082010905,13090926,81
1767764423,6703.031460444133,13090889,81
1767764423,6700.098514556885,13090854,81
1767764423,6694.61727142334,13090821,81
1767764423,6685.481866200765,13090787,81
1767764423,6645.766894022624,13090696,81
1767764423,6634.804407755534,13090669,81
1767764423,6626.919110616048,13090639,81
1767764423,6622.159083684285,13090610,81
1767764423,6617.302894592285,13090554,81
1767764423,6614.946921666463,13090528,81
1767764423,6611.965894699097,13090508,81
1767764423,6608.263651529948,13090472,81
1767764423,6604.032516479492,13090450,81
1767764423,6599.320570627849,13090425,81
1767764423,6594.752868016561,13090404,81
1767764423,6591.194868087769,13090377,81
1767764423,6590.040922164917,13090356,81
1767764423,6592.541138331096,13090334,81
1767764423,6599.320570627849,13090313,81
1767764423,6610.090732574463,13090295,81
1767764423,6623.024543126424,13090276,81
1767764423,6635.525623957316,13090256,81
1767764423,6644.468704859416,13090238,81
1767764423,6647.642056147258,13090217,81
1767764423,6644.901434580485,13090198,81
1767764423,6638.266245524089,13090184,81
1767764423,6631.198326746623,13090168,81
1767764423,6627.25567817688,13090150,81
1767764423,6628.650029500325,13090136,81
1767764423,6635.429461797078,13090119,81
1767764423,6645.478407541911,13090105,81
1767764423,6655.479272206624,13090086,81
1767764423,6662.210623423259,13090077,81
1767764423,6663.556893666585,13090061,81
1767764423,6659.998893737793,13090047,81
1767764423,6653.459866841634,13090038,81
1767764423,6647.017002105713,13090022,81
1767764423,6642.978191375732,13090011,81
1767764423,6642.497380574544,13089998,81
1767764423,6645.045677820842,13089989,81
1767764423,6649.276812871297,13089976,81
1767764423,6656.488974889119,13089960,81
1767764423,6657.546758651733,13089944,81
1767764423,6657.210191090901,13089936,81
1767764423,6656.537055969238,13089928,81
1767764423,6656.633218129476,13089914,81
1767764423,6658.07565053304,13089905,81
1767764423,6660.8162720998125,13089889,81
1767764423,6664.326190948486,13089881,81
1767764423,6667.788028717041,13089865,81
1767764423,6670.047839482625,13089850,81
1767764423,6669.951677322388,13089839,81
1767764423,6666.58600171407,13089821,81
1767764423,6659.71040725708,13089805,81
1767764423,6650.623083114624,13089791,81
1767764423,6641.3915157318115,13089774,81
1767764423,6634.756326675415,13089759,81
1767764423,6632.881164550781,13089740,81
1767764423,6637.016137440999,13089724,81
1767764423,6646.151542663574,13089706,81
1767764423,6657.402515411377,13089689,81
1767764423,6666.393677393596,13089667,81
1767764423,6669.03813680013,13089645,81
1767764423,6663.268407185872,13089628,81
1767764423,6649.949947992961,13089606,81
1767764423,6632.833083470662,13089591,81
1767764423,6617.254813512166,13089566,81
1767764423,6608.263651529948,13089545,81
1767764423,6608.600219090779,13089528,81
1767764423,6618.120272954305,13089507,81
1767764423,6633.698542912801,13089489,81
1767764423,6650.4307587941485,13089467,81
1767764423,6663.893461227417,13089453,81
1767764423,6671.346028645833,13089435,81
1767764423,6672.932704289754,13089423,81
1767764423,6670.769055684407,13089407,81
1767764423,6667.691866556804,13089395,81
1767764423,6665.624380111694,13089385,81
1767764423,6665.287812550862,13089373,81
1767764423,6665.864785512288,13089362,81
1767764423,6666.20135307312,13089355,81
1767764423,6665.528217951457,13089355,81
1767764423,6664.230028788249,13089351,81
1767764423,6664.037704467773,13089351,81
1767764423,6666.537920633952,13089352,81
1767764423,6672.115325927734,13089354,81
1767764423,6678.990920384725,13089360,81
1767764423,6683.222055435181,13089366,81
1767764423,6680.866082509358,13089374,81
1767764423,6669.615109761556,13089389,81
1767764423,6650.671164194743,13089403,81
1767764423,6628.601948420207,13089419,81
1767764423,6609.658002853394,13089435,81
1767764423,6599.849462509155,13089458,81
1767764423,6601.8688678741455,13089479,81
1767764423,6613.8410568237305,13089502,81
1767764423,6629.707813262939,13089526,81
1767764423,6641.968488693237,13089556,81
1767764423,6645.141839981079,13089582,81
1767764423,6638.21816444397,13089611,81
1767764423,6624.899705251058,13089645,81
1767764423,6611.82165145874,13089671,81
1767764423,6604.897975921631,13089704,81
1767764423,6606.340408325195,13089732,81
1767764423,6613.600651423137,13089771,81
1767764423,6621.101299921672,13089800,81
1767764423,6623.745759328206,13089829,81
1767764423,6620.716651280721,13089867,81
1767764423,6618.0721918741865,13089900,81
1767764423,6626.534461975098,13089927,81
1767764423,6657.354434331258,13089958,81
1767764423,6714.9074872334795,13089987,81
1767764423,6792.846918106079,13090021,81
1767764423,6873.2865651448565,13090044,81
1767764423,6931.416591008504,13090073,81
1767764423,6944.54272588094,13090097,81
1767764423,6900.163888931274,13090125,83
1767764423,6542.536815007527,13090200,83
1767764423,6442.960898081462,13090220,83
1767764423,6395.2163855234785,13090243,83
1767764423,6404.207547505696,13090256,83
1767764423,6457.433303197225,13090271,83
1767764423,6531.4781665802,13090287,83
1767764423,6601.580381393433,13090300,83
1767764423,6649.228731791179,13090313,83
1767764423,6667.884190877278,13090323,83
1767764423,6663.028001785278,13090331,83
1767764423,6647.017002105713,13090339,83
1767764423,6632.977326711019,13090347,83
1767764423,6628.650029500325,13090351,83
1767764423,6634.515921274821,13090357,83
1767764423,6645.334164301555,13090359,83
1767764423,6653.556029001872,13090361,83
1767764423,6653.796434402466,13090359,83
1767764423,6644.997596740723,13090363,83
1767764424,6630.717515945435,13090363,83
1767764424,6616.870164871216,13090359,83
1767764424,6609.081029891968,13090359,83
1767764424,6610.234975814819,13090353,83
1767764424,6619.274218877156,13090348,83
1767764424,6632.544596989949,13090344,83
1767764424,6645.382245381673,13090337,83
1767764424,6653.796434402466,13090331,83
1767764424,6656.104326248169,13090321,83
1767764424,6652.450164159139,13090315,83
1767764424,6624.851624170939,13090283,83
1767764424,6618.456840515137,13090273,83
1767764424,6616.870164871216,13090259,83
1767764424,6620.812813440959,13090246,83
1767764424,6630.09246190389,13090227,83
1767764424,6643.266677856445,13090212,83
1767764424,6657.642920811971,13090197,83
1767764424,6670.336325963338,13090181,83
1767764424,6678.750514984131,13090161,83
1767764424,6682.260433832805,13090147,83
1767764424,6682.260433832805,13090127,83
1767764424,6681.779623031616,13090111,83
1767764424,6683.895190556844,13090086,83
1767764424,6690.482298533122,13090071,83
1767764424,6701.10821723938,13090047,83
1767764424,6713.368892669678,13090026,83
1767764424,6724.090973536174,13090002,83
1767764424,6730.293432871501,13089977,83
1767764424,6731.15889231364,13089956,83
1767764424,6728.370189666748,13089927,83
1767764424,6725.4372437795,13089904,83
1767764424,6725.821892420451,13089872,83
1767764424,6731.351216634114,13089845,83
1767764424,6740.630865097046,13089826,83
1767764424,6749.718189239502,13089799,83
1767764424,6754.141648610433,13089771,83
1767764424,6750.150918960571,13089746,83
1767764424,6736.784378687541,13089727,83
1767764424,6716.2056763966875,13089698,83
1767764424,6692.9825146993,13089674,83
1767764424,6672.355731328328,13089650,83
1767764424,6658.2198937733965,13089633,83
1767764424,6651.248137156169,13089610,83
1767764424,6649.56529935201,13089592,83
1767764424,6649.661461512248,13089573,83
1767764424,6647.882461547852,13089552,83
1767764424,6622.78413772583,13089507,83
1767764424,6612.783273061116,13089495,83
1767764424,6605.619192123413,13089483,83
1767764424,6602.397759755452,13089473,83
1767764424,6602.445840835571,13089465,83
1767764424,6604.417165120442,13089459,83
1767764424,6606.7250569661455,13089455,83
1767764424,6608.407894770305,13089452,83
1767764424,6609.129110972087,13089448,83
1767764424,6606.580813725789,13089463,83
1767764424,6609.369516372681,13089471,83
1767764424,6614.369948705037,13089476,83
1767764424,6639.1317049662275,13089503,83
1767764424,6646.488110224406,13089515,83
1767764424,6651.20005607605,13089530,83
1767764424,6653.267542521159,13089538,83
1767764424,6653.3637046813965,13089551,83
1767764424,6652.786731719971,13089564,83
1767764424,6652.209758758545,13089580,83
1767764424,6652.354001998901,13089592,83
1767764424,6652.979056040446,13089607,83
1767764424,6653.940677642822,13089617,83
1767764424,6654.709974924724,13089624,83
1767764424,6654.902299245198,13089641,83
1767764424,6654.6618938446045,13089684,83
1767764424,6653.652191162109,13089698,83
1767764424,6651.392380396525,13089711,83
1767764424,6647.978623708089,13089719,83
1767764424,6644.805272420247,13089732,83
1767764424,6643.603245417277,13089744,83
1767764424,6646.055380503337,13089754,83
1767764424,6652.930974960327,13089765,83
1767764424,6663.604974746704,13089776,83
1767764424,6675.865650177002,13089785,83
1767764424,6686.3954067230225,13089797,83
1767764424,6691.5881633758545,13089807,83
1767764424,6689.3283526102705,13089826,83
1767764424,6679.471731185913,13089835,83
1767764424,6664.085785547893,13089852,83
1767764424,6646.680434544881,13089863,83
1767764424,6631.150245666504,13089880,83
1767764424,6620.860894521077,13089890,83
1767764424,6617.783705393474,13089908,83
1767764424,6621.582110722859,13089928,83
1767764424,6630.573272705078,13089945,83
1767764424,6641.7280832926435,13089963,83
1767764424,6651.777029037476,13089979,83
1767764424,6658.123731613159,13090003,83
1767764424,6659.806569417317,13090020,83
1767764424,6656.729380289714,13090039,83
1767764424,6650.238434473674,13090056,83
1767764424,6642.401218414307,13090083,83
1767764424,6635.477542877197,13090099,83
1767764424,6631.534894307454,13090121,83
1767764424,6631.534894307454,13090147,83
1767764424,6635.140975316365,13090160,83
1767764424,6641.535758972168,13090186,83
1767764424,6649.13256963094,13090205,83
1767764424,6656.248569488525,13090225,83
1767764424,6662.499109903972,13090283,83
1767764424,6658.460299173991,13090301,83
1767764424,6652.83481280009,13090317,83
1767764424,6647.11316426595,13090328,83
1767764424,6643.266677856445,13090343,83
1767764424,6642.833948135376,13090356,83
1767764424,6646.728515625,13090369,83
1767764424,6655.094623565674,13090377,83
1767764424,6666.345596313477,13090383,83
1767764424,6678.125460942586,13090386,83
1767764424,6687.597433725993,13090388,83
1767764424,6692.59786605835,13090395,83
1767764424,6691.9247309366865,13090389,83
1767764424,6664.518515268962,13090365,83
1767764424,6653.892596562703,13090360,83
1767764424,6645.863056182861,13090344,83
1767764424,6640.910704930623,13090330,83
1767764424,6638.554732004802,13090312,83
1767764424,6637.448867162068,13090288,83
1767764424,6636.294921239217,13090270,83
1767764424,6634.083191553752,13090243,83
1767764424,6630.429029464722,13090225,83
1767764424,6625.62092145284,13090192,83
1767764424,6620.6685702006025,13090168,83
1767764424,6617.254813512166,13090139,83
1767764424,6616.7740027109785,13090109,83
1767764424,6619.466543197632,13090076,83
1767764424,6624.515056610107,13090042,83
1767764424,6629.467407862346,13090010,83
1767764424,6631.390651067098,13089975,83
1767764424,6627.976894378662,13089943,83
1767764424,6618.6972459157305,13089909,83
1767764424,6606.773138046265,13089874,83
1767764424,6598.551273345947,13089841,83
1767764424,6602.8304894765215,13089812,83
1767764424,6627.399921417236,13089778,83
1767764424,6675.481001536052,13089752,83
1767764424,6743.0830001831055,13089721,83
1767764424,6818.474133809407,13089690,83
1767764424,6884.297132492065,13089661,83
1767764424,6922.185023625691,13089634,83
1767764424,6778.278350830078,13089563,81
1767764424,6667.162974675496,13089539,81
1767764424,6557.682355244954,13089525,81
1767764424,6471.6653029123945,13089503,81
1767764424,6423.968871434529,13089489,81
1767764424,6418.583790461223,13089477,81
1767764424,6448.826789855957,13089458,81
1767764424,6500.465869903564,13089453,81
1767764424,6556.576490402222,13089441,81
1767764424,6603.118975957234,13089434,81
1767764424,6632.256110509236,13089429,81
1767764424,6632.015705108643,13089418,81
1767764424,6637.208461761475,13089422,81
1767764424,6644.612948099772,13089426,81
1767764424,6650.478839874268,13089430,81
1767764424,6652.0655155181885,13089428,81
1767764424,6648.699839909871,13089430,81
1767764424,6641.824245452881,13089440,81
1767764424,6634.083191553752,13089437,81
1767764424,6628.024975458781,13089441,81
1767764424,6625.1881917317705,13089447,81
1767764424,6625.717083613078,13089443,81
1767764424,6628.361543019612,13089444,81
1767764424,6631.72721862793,13089445,81
1767764424,6634.371678034465,13089447,81
1767764424,6635.717948277791,13089449,81
1767764424,6636.15067799886,13089450,81
1767764424,6636.58340771993,13089440,81
1767764424,6644.035975138347,13089427,81
1767764424,6646.968921025594,13089425,81
1767764424,6648.74792098999,13089407,81
1767764424,6649.421056111653,13089398,81
1767764424,6649.757623672485,13089387,81
1767764424,6651.007731755574,13089373,81
1767764424,6654.6618938446045,13089364,81
1767764424,6661.585569381714,13089346,81
1767764424,6671.634515126546,13089331,81
1767764424,6705.772082010905,13089277,81
1767764424,6713.753541310628,13089256,81
1767764424,6719.811757405599,13089240,81
1767764424,6724.6198654174805,13089218,81
1767764424,6729.09140586853,13089200,81
1767764424,6733.17829767863,13089180,81
1767764424,6736.543973286946,13089164,81
1767764424,6738.178730010986,13089138,81
1767764424,6737.409432729085,13089119,81
1767764424,6733.851432800293,13089105,81
1767764424,6728.274027506511,13089085,81
1767764424,6722.3600546518965,13089068,81
1767764424,6717.648108800252,13089053,81
1767764424,6714.859406153361,13089040,81
1767764424,6713.032325108846,13089021,81
1767764424,6710.43594678243,13089010,81
1767764424,6705.483595530192,13088997,81
1767764424,6697.309811909993,13088990,81
1767764424,6686.010758082072,13088982,81
1767764424,6673.221190770467,13088974,81
1767764424,6661.1528396606445,13088978,81
1767764424,6651.392380396525,13088969,81
1767764424,6644.564867019653,13088970,81
1767764424,6639.42019144694,13088977,81
1767764424,6633.650461832683,13088984,81
1767764424,6625.476678212483,13088989,81
1767764424,6614.321867624919,13089000,81
1767764424,6601.772705713908,13089016,81
1767764424,6590.906381607056,13089033,81
1767764424,6584.992408752441,13089051,81
1767764424,6586.386760075887,13089067,81
1767764424,6595.18559773763,13089093,81
1767764424,6608.888705571492,13089115,81
1767764424,6623.313029607137,13089141,81
1767764424,6633.698542912801,13089167,81
1767764424,6637.112299601237,13089193,81
1767764424,6633.217732111613,13089226,81
1767764424,6624.851624170939,13089257,81
1767764425,6616.052786509196,13089288,81
1767764425,6611.244678497314,13089322,81
1767764425,6612.927516301473,13089355,81
1767764425,6621.437867482503,13089394,81
1767764425,6634.13127263387,13089430,81
1767764425,6647.257407506307,13089470,81
1767764425,6656.488974889119,13089504,81
1767764425,6659.5180829366045,13089549,81
1767764425,6656.104326248169,13089577,81
1767764425,6648.555596669515,13089616,81
1767764425,6639.949083328247,13089646,81
1767764425,6633.458137512207,13089682,81
1767764425,6631.0060024261475,13089721,81
1767764425,6633.169651031494,13089753,81
1767764425,6638.891299565633,13089780,81
1767764425,6646.536191304524,13089809,81
1767764425,6654.084920883179,13089838,81
1767764425,6660.5277856191,13089863,81
1767764425,6665.335893630981,13089891,81
1767764425,6668.701569239299,13089912,81
1767764425,6670.5286502838135,13089937,81
1767764425,6670.624812444051,13089954,81
1767764425,6668.605407079061,13089967,81
1767764425,6664.374272028605,13089982,81
1767764425,6658.364137013753,13089987,81
1767764425,6651.873191197713,13090001,81
1767764425,6646.007299423218,13090004,81
1767764425,6642.497380574544,13090004,81
1767764425,6641.920407613118,13090001,81
1767764425,6651.873191197713,13089956,81
1767764425,6648.122866948445,13089943,81
1767764425,6643.555164337158,13089923,81
1767764425,6639.324029286702,13089902,81
1767764425,6636.294921239217,13089872,81
1767764425,6622.687975565593,13089747,81
1767764425,6611.917813618978,13089713,81
1767764425,6597.878138224284,13089675,81
1767764425,6582.492192586263,13089634,81
1767764425,6568.067868550618,13089595,81
1767764425,6556.864976882935,13089555,81
1767764425,6550.422112147014,13089511,81
1767764425,6549.508571624756,13089468,81
1767764425,6554.172436396281,13089424,81
1767764425,6587.156057357788,13089285,81
1767764425,6597.6377328236895,13089237,81
1767764425,6604.8018137613935,13089188,81
1767764425,6607.590516408284,13089144,81
1767764425,6606.532732645671,13089098,81
1767764425,6603.5036245981855,13089049,81
1767764425,6601.772705713908,13088996,81
1767764425,6604.417165120442,13088957,81
1767764425,6613.071759541829,13088906,81
1767764425,6627.25567817688,13088864,81
1767764425,6644.612948099772,13088817,81
1767764425,6661.72981262207,13088774,81
1767764425,6675.577163696289,13088734,81
1767764425,6684.47216351827,13088689,81
1767764425,6688.847541809082,13088650,81
1767764425,6690.770785013835,13088606,81
1767764425,6692.405541737874,13088567,81
1767764425,6695.290406545003,13088528,81
1767764425,6700.29083887736,13088455,81
1767764425,6698.175271352132,13088421,81
1767764425,6691.972812016805,13088391,81
1767764425,6683.366298675537,13088359,81
1767764425,6676.009893417358,13088330,81
1767764425,6715.099811553955,13088189,81
1767764425,6724.812189737956,13088161,81
1767764425,6730.485757191976,13088140,81
1767764425,6734.091838200887,13088115,81
1767764425,6737.697919209798,13088091,81
1767764425,6724.2832978566485,13088000,81
1767764425,6719.138622283936,13087984,81
1767764425,6731.54354095459,13087972,81
1767764425,6771.402756373088,13087957,81
1767764425,6929.733753204346,13087929,81
1767764425,7015.125751495361,13087915,81
1767764425,7069.072723388672,13087904,81
1767764425,7067.822615305583,13087889,82
1767764425,7002.288103103638,13087875,82
1767764425,6883.479754130046,13087869,82
1767764425,6740.390459696452,13087856,82
1767764425,6610.427300135295,13087848,82
1767764425,6526.141166687012,13087841,82
1767764425,6503.639221191406,13087833,82
1767764425,6536.719004313151,13087823,82
1767764425,6599.6090571085615,13087816,82
1767764425,6600.9072462717695,13087791,82
1767764425,6523.112058639526,13087791,82
1767764425,6454.933087031047,13087787,82
1767764425,6416.804790496826,13087783,82
1767764425,6415.170033772786,13087782,82
1767764425,6441.710789998372,13087779,82
1767764425,6478.73322168986,13087776,82
1767764425,6508.110761642456,13087776,82
1767764425,6519.361734390259,13087770,82
1767764425,6512.774626413981,13087775,82
1767764425,6497.196356455485,13087774,82
1767764425,6484.647194544475,13087770,82
1767764425,6527.82400449117,13087783,82
1767764425,6535.084247589111,13087789,82
1767764425,6532.29554494222,13087790,82
1767764425,6524.1217613220215,13087793,82
1767764425,6518.784761428833,13087804,82
1767764425,6523.640950520833,13087807,82
1767764425,6541.719436645508,13087814,82
1767764425,6570.520003636678,13087817,82
1767764425,6603.5036245981855,13087832,82
1767764425,6633.698542912801,13087835,82
1767764425,6656.104326248169,13087841,82
1767764425,6670.047839482625,13087847,82
1767764425,6678.3177852630615,13087859,82
1767764425,6685.67419052124,13087867,82
1767764425,6696.155865987142,13087872,82
1767764425,6711.782217025757,13087882,82
1767764425,6731.4473787943525,13087888,82
1767764425,6752.074162165324,13087896,82
1767764425,6770.681540171306,13087913,82
1767764425,6785.346269607544,13087919,82
1767764425,6795.876026153564,13087931,82
1767764425,6803.088188171387,13087941,82
1767764425,6808.040539423625,13087949,82
1767764425,6811.50237719218,13087963,82
1767764425,6813.185214996338,13087972,82
1767764425,6809.05024210612,13087998,82
1767764425,6801.886161168416,13088010,82
1767764425,6791.548728942871,13088019,82
1767764425,6778.566837310791,13088032,82
1767764425,6763.854026794434,13088048,82
1767764425,6748.035351435344,13088060,82
1767764425,6731.206973393758,13088077,82
1767764425,6714.042027791341,13088087,82
1767764425,6697.309811909993,13088103,82
1767764425,6682.404677073161,13088124,82
1767764425,6670.28824488322,13088136,82
1767764425,6661.4894072214765,13088149,82
1767764425,6655.383110046387,13088167,82
1767764425,6650.38267771403,13088182,82
1767764425,6644.32446161906,13088203,82
1767764425,6635.092894236247,13088221,82
1767764425,6569.702625274658,13088299,82
1767764425,6560.230652491252,13088324,82
1767764425,6558.932463328044,13088345,82
1767764425,6565.471490224202,13088367,82
1767764425,6577.203273773193,13088389,82
1767764425,6588.117678960164,13088528,82
1767764425,6587.829192479451,13088552,82
1767764425,6594.4163004557295,13088579,82
1767764425,6637.352705001831,13088650,82
1767764425,6646.488110224406,13088678,82
1767764425,6648.5075155893965,13088700,82
1767764425,6644.228299458821,13088719,82
1767764425,6636.871894200643,13088745,82
1767764425,6630.429029464722,13088763,82
1767764425,6627.832651138306,13088788,82
1767764425,6629.755894343059,13088800,82
1767764425,6635.092894236247,13088825,82
1767764425,6641.872326533,13088838,82
1767764425,6648.459434509277,13088853,82
1767764425,6654.181083043416,13088864,82
1767764425,6659.5180829366045,13088877,82
1767764425,6665.480136871338,13088887,82
1767764425,6672.740379969279,13088893,82
1767764425,6680.385271708171,13088902,82
1767764425,6686.05883916219,13088908,82
1767764425,6687.068541844686,13088912,82
1767764425,6681.539217631022,13088912,82
1767764425,6670.28824488322,13088911,82
1767764425,6656.440893809001,13088911,82
1767764425,6644.805272420247,13088905,82
1767764425,6639.42019144694,13088904,82
1767764425,6642.064650853475,13088895,82
1767764425,6651.248137156169,13088887,82
1767764425,6663.076082865397,13088874,82
1767764425,6671.971082687378,13088858,82
1767764425,6673.894325892131,13088839,82
1767764425,6667.451461156209,13088826,82
1767764425,6654.9984614054365,13088808,82
1767764425,6641.247272491455,13088785,82
1767764425,6631.29448890686,13088767,82
1767764425,6627.928813298543,13088743,82
1767764425,6631.438732147217,13088725,82
1767764425,6639.035542805989,13088696,82
1767764425,6646.872758865356,13088672,82
1767764425,6651.488542556763,13088643,82
1767764425,6651.1038939158125,13088619,82
1767764425,6646.824677785237,13088592,82
1767764425,6641.247272491455,13088567,82
1767764425,6637.40078608195,13088543,82
1767764425,6637.112299601237,13088515,82
1767764425,6640.189488728841,13088492,82
1767764425,6644.612948099772,13088473,82
1767764425,6648.988326390584,13088427,82
1767764425,6647.065083185832,13088403,82
1767764425,6643.459002176921,13088388,82
1767764425,6640.0933265686035,13088376,82
1767764425,6638.843218485515,13088360,82
1767764425,6640.814542770386,13088346,82
1767764425,6645.574569702148,13088332,82
1767764425,6651.344299316406,13088323,82
1767764425,6656.344731648763,13088319,82
1767764425,6658.652623494466,13088311,82
1767764425,6656.729380289714,13088317,82
1767764425,6654.950380325317,13088321,82
1767764425,6654.181083043416,13088323,82
1767764425,6654.709974924724,13088338,82
1767764425,6656.585137049357,13088345,82
1767764425,6668.076515197754,13088397,82
1767764426,6673.50967725118,13088421,82
1767764426,6678.79859606425,13088445,82
1767764426,6682.452758153279,13088474,82
1767764426,6682.981650034587,13088498,82
1767764426,6679.039001464844,13088528,82
1767764426,6670.624812444051,13088557,82
1767764426,6658.8930288950605,13088587,82
1767764426,6646.199623743693,13088614,82
1767764426,6635.525623957316,13088647,82
1767764426,6629.611651102702,13088677,82
1767764426,6629.611651102702,13088712,82
1767764426,6634.756326675415,13088740,82
1767764426,6641.968488693237,13088773,82
1767764426,6647.497812906901,13088802,82
1767764426,6647.978623708089,13088825,82
1767764426,6642.401218414307,13088853,82
1767764426,6631.871461868286,13088877,82
1767764426,6619.466543197632,13088899,82
1767764426,6608.648300170898,13088929,82
1767764426,6601.724624633789,13088945,82
1767764426,6598.45511118571,13088960,82
1767764426,6596.483786900838,13088977,82
1767764426,6592.493057250977,13088988,82
1767764426,6585.184733072917,13089000,82
1767764426,6577.7321656545,13089013,82
1767764426,6577.539841334025,13089015,82
1767764426,6594.464381535848,13089014,82
1767764426,6636.439164479573,13089017,82
1767764426,6704.906622568767,13089013,82
1767764426,6791.789134343465,13088998,82
1767764426,6879.729429880778,13088991,82
1767764426,6945.696671803792,13088973,82
1767764426,6968.1986172993975,13088957,82
1767764426,6934.638023376465,13088935,81
1767764426,6846.986214319865,13088911,81
1767764426,6721.879243850708,13088880,81
1767764426,6586.579084396362,13088848,81
1767764426,6470.3671137491865,13088822,81
1767764426,6396.1780071258545,13088789,81
1767764426,6373.676061630249,13088754,81
1767764426,6397.908926010132,13088716,81
1767764426,6452.5290330251055,13088681,81
1767764426,6603.69594891866,13088555,81
1767764426,6618.408759435018,13088517,81
1767764426,6620.860894521077,13088476,81
1767764426,6620.76473236084,13088434,81
1767764426,6625.332434972127,13088397,81
1767764426,6637.016137440999,13088355,81
1767764426,6652.690569559733,13088319,81
1767764426,6667.114893595378,13088277,81
1767764426,6675.336758295695,13088242,81
1767764426,6675.432920455933,13088210,81
1767764426,6669.278542200725,13088176,81
1767764426,6660.864353179932,13088149,81
1767764426,6653.507947921753,13088114,81
1767764426,6648.315191268921,13088087,81
1767764426,6644.180218378703,13088069,81
1767764426,6638.554732004802,13088046,81
1767764426,6629.948218663533,13088037,81
1767764426,6619.178056716919,13088018,81
1767764426,6609.369516372681,13088002,81
1767764426,6605.090300242106,13087992,81
1767764426,6609.946489334106,13087989,81
1767764426,6624.41889444987,13087989,81
1767764426,6645.141839981079,13087986,81
1767764426,6665.768623352051,13087990,81
1767764426,6679.664055506389,13087994,81
1767764426,6677.0195960998535,13088005,81
1767764426,6665.335893630981,13088018,81
1767764426,6654.565731684367,13088031,81
1767764426,6650.334596633911,13088048,81
1767764426,6655.190785725911,13088060,81
1767764426,6667.499542236328,13088083,81
1767764426,6682.597001393636,13088100,81
1767764426,6694.5211092631025,13088118,81
1767764426,6699.617703755696,13088138,81
1767764426,6697.45405515035,13088156,81
1767764426,6691.203514734904,13088177,81
1767764426,6685.866514841716,13088196,81
1767764426,6685.337622960408,13088213,81
1767764426,6691.395839055379,13088228,81
1767764426,6702.791055043538,13088250,81
1767764426,6716.10951423645,13088263,81
1767764426,6727.504730224609,13088274,81
1767764426,6734.6688111623125,13088286,81
1767764426,6737.505594889323,13088290,81
1767764426,6738.226811091105,13088305,81
1767764426,6739.188432693481,13088302,81
1767764426,6741.159756978353,13088300,81
1767764426,6742.457946141561,13088300,81
1767764426,6739.765405654907,13088295,81
1767764426,6729.764540990193,13088287,81
1767764426,6711.157162984212,13088278,81
1767764426,6686.05883916219,13088264,81
1767764426,6659.32575861613,13088244,81
1767764426,6620.812813440959,13088178,81
1767764426,6624.659299850464,13088143,81
1767764426,6629.178921381633,13088110,81
1767764426,6628.217299779256,13088080,81
1767764426,6618.74532699585,13088042,81
1767764426,6602.638165156047,13088005,81
1767764426,6585.569381713867,13087963,81
1767764426,6574.366490046184,13087917,81
1767764426,6574.51073328654,13087876,81
1767764426,6627.496083577474,13087729,81
1767764426,6640.381813049316,13087680,81
1767764426,6641.199191411336,13087627,81
1767764426,6631.0060024261475,13087577,81
1767764426,6615.716218948364,13087526,81
1767764426,6603.359381357829,13087473,81
1767764426,6600.4745165507,13087423,81
1767764426,6609.4175974528,13087374,81
1767764426,6627.688407897949,13087322,81
1767764426,6649.036407470703,13087276,81
1767764426,6666.537920633952,13087230,81
1767764426,6675.52908261617,13087183,81
1767764426,6675.577163696289,13087143,81
1767764426,6670.240163803101,13087099,81
1767764426,6665.095488230388,13087054,81
1767764426,6664.518515268962,13087024,81
1767764426,6669.85551516215,13086982,81
1767764426,6678.894758224487,13086949,81
1767764426,6687.405109405518,13086917,81
1767764426,6691.299676895142,13086890,81
1767764426,6688.6552174886065,13086865,81
1767764426,6680.481433868408,13086849,81
1767764426,6670.480569203694,13086824,81
1767764426,6663.028001785278,13086815,81
1767764426,6661.008596420288,13086799,81
1767764426,6664.614677429199,13086790,81
1767764426,6671.297947565715,13086787,81
1767764426,6677.16383934021,13086790,81
1767764426,6670.336325963338,13086792,81
1767764426,6663.4126504262285,13086802,81
1767764426,6658.07565053304,13086811,81
1767764426,6655.23886680603,13086830,81
1767764426,6654.03683980306,13086850,81
1767764426,6651.969353357951,13086863,81
1767764426,6646.872758865356,13086889,81
1767764426,6637.977759043376,13086915,81
1767764426,6627.207597096761,13086942,81
1767764426,6618.120272954305,13086967,81
1767764426,6614.610354105632,13086998,81
1767764426,6618.793408075969,13087033,81
1767764426,6629.900137583415,13087066,81
1767764426,6644.180218378703,13087102,81
1767764426,6656.488974889119,13087139,81
1767764426,6661.874055862427,13087175,81
1767764426,6657.642920811971,13087211,81
1767764426,6644.564867019653,13087252,81
1767764426,6626.919110616048,13087289,81
1767764426,6610.331137975057,13087329,81
1767764426,6620.524326960246,13087481,81
1767764426,6636.102596918742,13087517,81
1767764426,6650.142272313436,13087558,81
1767764426,6660.623947779338,13087591,81
1767764426,6667.355298995972,13087624,81
1767764426,6670.769055684407,13087656,81
1767764426,6671.682596206665,13087693,81
1767764426,6669.999758402507,13087719,81
1767764426,6664.855082829793,13087744,81
1767764426,6655.479272206624,13087775,81
1767764426,6642.3531373341875,13087799,81
1767764426,6627.496083577474,13087821,81
1767764426,6614.225705464681,13087844,81
1767764426,6605.4268678029375,13087859,81
1767764426,6602.686246236165,13087874,81
1767764426,6605.4268678029375,13087891,81
1767764426,6611.100435256958,13087905,81
1767764426,6616.67784055074,13087911,81
1767764426,6619.755029678345,13087920,81
1767764426,6620.043516159058,13087935,81
1767764426,6619.706948598226,13087937,81
1767764426,6621.14938100179,13087942,81
1767764426,6625.476678212483,13087946,81
1767764426,6630.861759185791,13087948,81
1767764426,6633.313894271851,13087945,81
1767764426,6628.986597061157,13087938,81
1767764426,6617.591381072998,13087933,81
1767764426,6604.321002960205,13087927,81
1767764426,6599.65713818868,13087922,81
1767764426,6615.716218948364,13087911,81
1767764426,6661.393245061238,13087902,81
1767764426,6736.063162485759,13087888,81
1767764426,6827.224890391032,13087877,81
1767764426,6911.655267079671,13087863,81
1767764426,6962.621212005615,13087849,81
1767764426,6958.918968836467,13087833,90
1767764426,6893.432537714641,13087819,90
1767764426,6776.643594106038,13087802,90
1767764426,6634.467840194702,13087785,90
1767764426,6500.273545583089,13087762,90
1767764426,6404.399871826172,13087748,90
1767764426,6364.68489964803,13087731,90
1767764426,6381.657520929973,13087713,90
1767764426,6581.578652064006,13087666,90
1767764426,6626.43829981486,13087646,90
1767764426,6645.09375890096,13087620,90
1767764426,6644.180218378703,13087605,90
1767764426,6634.996732076009,13087585,90
1767764426,6638.698975245158,13087525,90
1767764426,6648.892164230347,13087509,90
1767764426,6654.806137084961,13087485,90
1767764426,6653.556029001872,13087470,90
1767764426,6646.632353464763,13087448,90
1767764426,6638.650894165039,13087425,90
1767764426,6634.515921274821,13087404,90
1767764426,6636.968056360881,13087384,90
1767764426,6645.238002141316,13087359,90
1767764426,6662.691434224446,13087319,90
1767764426,6663.36456934611,13087299,90
1767764426,6656.440893809001,13087273,90
1767764426,6644.468704859416,13087253,90
1767764426,6631.582975387573,13087226,90
1767764426,6621.9667593638105,13087202,90
1767764426,6617.7356243133545,13087177,90
1767764426,6618.601083755493,13087151,90
1767764426,6622.832218805949,13087129,90
1767764426,6627.928813298543,13087099,90
1767764426,6643.459002176921,13086996,90
1767764426,6652.113596598308,13086967,90
1767764426,6664.662758509318,13086940,90
1767764426,6680.144866307576,13086914,90
1767764426,6696.492433547974,13086882,90
1767764426,6711.157162984212,13086858,90
1767764426,6722.408135732015,13086830,90
1767764426,6729.187568028768,13086808,90
1767764426,6731.591622034709,13086775,90
1767764426,6730.822324752808,13086744,90
1767764426,6728.8510004679365,13086717,90
1767764426,6728.081703186035,13086690,90
1767764427,6730.341513951619,13086662,90
1767764427,6736.159324645996,13086636,90
1767764427,6744.91008122762,13086612,90
1767764427,6754.478216171265,13086586,90
1767764427,6761.8827025095625,13086562,90
1767764427,6763.902107874553,13086537,90
1767764427,6758.180459340413,13086511,90
1767764427,6744.477351506551,13086491,90
1767764427,6724.475622177124,13086465,90
1767764427,6702.117919921875,13086447,90
1767764427,6681.731541951497,13086431,90
1767764427,6667.162974675496,13086411,90
1767764427,6659.71040725708,13086395,90
1767764427,6658.700704574585,13086380,90
1767764427,6660.623947779338,13086365,90
1767764427,6661.441326141357,13086348,90
1767764427,6657.2582721710205,13086339,90
1767764427,6646.440029144287,13086326,90
1767764427,6630.09246190389,13086314,90
1767764427,6611.629327138265,13086307,90
1767764427,6595.329840977986,13086296,90
1767764427,6584.607760111491,13086288,90
1767764427,6580.953598022461,13086279,90
1767764427,6583.598057428996,13086276,90
1767764427,6589.94476000468,13086272,90
1767764427,6597.0126787821455,13086267,90
1767764427,6602.109273274739,13086266,90
1767764427,6604.369084040324,13086265,90
1767764427,6604.369084040324,13086270,90
1767764427,6603.792111078898,13086269,90
1767764427,6604.1286786397295,13086275,90
1767764427,6606.003840764363,13086282,90
1767764427,6608.840624491374,13086280,90
1767764427,6612.062056859334,13086288,90
1767764427,6619.081894556682,13086310,90
1767764427,6622.111002604167,13086320,90
1767764427,6626.630624135335,13086328,90
1767764427,6632.208029429118,13086335,90
1767764427,6640.574137369792,13086366,90
1767764427,6640.23756980896,13086380,90
1767764427,6636.58340771993,13086394,90
1767764427,6631.390651067098,13086410,90
1767764427,6627.736488978068,13086427,90
1767764427,6628.505786259969,13086443,90
1767764427,6635.429461797078,13086461,90
1767764427,6648.36327234904,13086476,90
1767764427,6665.047407150269,13086497,90
1767764427,6681.8757851918535,13086519,90
1767764427,6694.713433583577,13086535,90
1767764427,6700.867811838786,13086556,90
1767764427,6665.672461191813,13086673,90
1767764427,6662.018299102783,13086702,90
1767764427,6661.393245061238,13086720,90
1767764427,6662.402947743733,13086750,90
1767764427,6662.691434224446,13086773,90
1767764427,6643.266677856445,13086915,90
1767764427,6643.555164337158,13086944,90
1767764427,6646.536191304524,13086976,90
1767764427,6650.719245274861,13087005,90
1767764427,6654.181083043416,13087070,90
1767764427,6650.719245274861,13087106,90
1767764427,6644.661029179891,13087133,90
1767764427,6638.266245524089,13087166,90
1767764427,6633.794705073039,13087200,90
1767764427,6632.256110509236,13087234,90
1767764427,6633.36197535197,13087265,90
1767764427,6635.2371374766035,13087301,90
1767764427,6635.910272598267,13087338,90
1767764427,6634.275515874227,13087369,90
1767764427,6630.813678105672,13087402,90
1767764427,6627.736488978068,13087440,90
1767764427,6636.439164479573,13087533,90
1767764427,6640.333731969197,13087567,90
1767764427,6638.7951374053955,13087601,90
1767764427,6631.150245666504,13087631,90
1767764427,6621.485948562622,13087658,90
1767764427,6618.793408075969,13087690,90
1767764427,6633.9389483133955,13087721,90
1767764427,6673.990488052368,13087749,90
1767764427,6737.794081370036,13087774,90
1767764427,6813.233296076457,13087803,90
1767764427,6878.86397043864,13087830,90
1767764427,6910.405158996582,13087853,90
1767764427,6889.4898891448975,13087875,101
1767764427,6811.742782592773,13087901,101
1767764427,6690.6265417734785,13087921,101
1767764427,6553.835868835449,13087935,101
1767764427,6435.219844182332,13087955,101
1767764427,6363.675196965535,13087972,101
1767764427,6353.530089060466,13087987,101
1767764427,6399.976412455241,13088001,101
1767764427,6482.3393026987715,13088008,101
1767764427,6571.625868479411,13088023,101
1767764427,6641.680002212524,13088029,101
1767764427,6677.54848798116,13088031,101
1767764427,6679.231325785319,13088036,101
1767764427,6624.755462010701,13088033,101
1767764427,6639.468272527059,13088028,101
1767764427,6648.988326390584,13088020,101
1767764427,6648.315191268921,13088011,101
1767764427,6638.698975245158,13087998,101
1767764427,6638.21816444397,13087933,101
1767764427,6649.56529935201,13087916,101
1767764427,6655.286947886149,13087900,101
1767764427,6649.372975031535,13087868,101
1767764427,6643.699407577515,13087851,101
1767764427,6640.62221844991,13087836,101
1767764427,6641.006867090861,13087820,101
1767764427,6643.266677856445,13087801,101
1767764427,6644.70911026001,13087791,101
1767764427,6644.035975138347,13087773,101
1767764427,6641.920407613118,13087760,101
1767764427,6641.247272491455,13087751,101
1767764427,6645.526488622029,13087744,101
1767764427,6657.065947850545,13087734,101
1767764427,6675.3848393758135,13087722,101
1767764427,6697.069406509399,13087714,101
1767764427,6716.782649358113,13087712,101
1767764427,6729.764540990193,13087710,101
1767764427,6733.418703079224,13087707,101
1767764427,6729.043324788411,13087706,101
1767764427,6720.725297927856,13087705,101
1767764427,6714.042027791341,13087713,101
1767764427,6713.128487269084,13087718,101
1767764427,6719.619433085124,13087727,101
1767764427,6731.880108515422,13087736,101
1767764427,6746.256351470947,13087753,101
1767764427,6758.036216100057,13087765,101
1767764427,6763.950188954671,13087783,101
1767764427,6762.5077565511065,13087802,101
1767764427,6754.959026972453,13087821,101
1767764427,6743.948459625244,13087840,101
1767764427,6732.168594996135,13087866,101
1767764427,6721.206108729045,13087889,101
1767764427,6711.0129197438555,13087914,101
1767764427,6700.675487518311,13087940,101
1767764427,6688.847541809082,13087968,101
1767764427,6674.7597853342695,13088000,101
1767764427,6658.844947814941,13088033,101
1767764427,6642.593542734782,13088062,101
1767764427,6628.361543019612,13088092,101
1767764427,6618.456840515137,13088127,101
1767764427,6613.88913790385,13088160,101
1767764427,6617.783705393474,13088261,101
1767764427,6616.485516230266,13088291,101
1767764427,6611.148516337077,13088327,101
1767764427,6602.253516515096,13088359,101
1767764427,6592.396895090739,13088392,101
1767764427,6598.9359219868975,13088502,101
1767764427,6612.013975779216,13088530,101
1767764427,6622.880299886067,13088548,101
1767764427,6627.496083577474,13088574,101
1767764427,6623.938083648682,13088595,101
1767764427,6613.216002782186,13088609,101
1767764427,6599.2724895477295,13088633,101
1767764427,6587.444543838501,13088649,101
1767764427,6582.780679066976,13088664,101
1767764427,6587.781111399333,13088672,101
1767764427,6601.5323003133135,13088683,101
1767764427,6620.187759399414,13088696,101
1767764427,6638.60281308492,13088702,101
1767764427,6652.113596598308,13088700,101
1767764427,6658.5564613342285,13088707,101
1767764427,6658.412218093872,13088709,101
1767764427,6654.758056004842,13088709,101
1767764427,6661.200920740764,13088677,101
1767764427,6662.4510288238525,13088669,101
1767764427,6661.4894072214765,13088657,101
1767764427,6660.383542378743,13088644,101
1767764427,6662.4510288238525,13088620,101
1767764427,6669.807434082031,13088606,101
1767764427,6718.225081761678,13088533,101
1767764427,6713.224649429321,13088515,101
1767764427,6697.45405515035,13088494,101
1767764427,6675.192515055339,13088473,101
1767764427,6653.0271371205645,13088452,101
1767764427,6637.40078608195,13088431,101
1767764427,6632.208029429118,13088413,101
1767764427,6637.593110402425,13088388,101
1767764427,6649.757623672485,13088372,101
1767764427,6662.643353144328,13088355,101
1767764427,6670.095920562744,13088341,101
1767764427,6668.509244918823,13088319,101
1767764427,6640.189488728841,13088291,101
1767764427,6621.053218841553,13088273,101
1767764427,6604.321002960205,13088265,101
1767764427,6585.521300633748,13088231,101
1767764427,6588.406165440877,13088226,101
1767764427,6594.560543696086,13088222,101
1767764427,6603.840192159017,13088217,101
1767764427,6615.956624348958,13088208,101
1767764427,6629.563570022583,13088209,101
1767764427,6641.535758972168,13088209,101
1767764427,6647.738218307495,13088206,101
1767764427,6644.997596740723,13088210,101
1767764427,6633.36197535197,13088218,101
1767764427,6617.591381072998,13088225,101
1767764427,6606.821219126384,13088232,101
1767764427,6611.5812460581465,13088238,101
1767764427,6639.949083328247,13088242,101
1767764427,6693.655649820964,13088251,101
1767764427,6764.959891637166,13088265,101
1767764427,6838.139295578003,13088274,101
1767764427,6892.663240432739,13088288,101
1767764427,6910.501321156819,13088293,101
1767764427,6881.844997406006,13088307,103
1767764427,6809.482971827189,13088319,103
1767764427,6708.128054936727,13088332,103
1767764427,6600.2341111501055,13088344,103
1767764427,6509.120464324951,13088356,103
1767764427,6452.384789784749,13088371,103
1767764427,6436.758438746135,13088380,103
1767764427,6457.289059956868,13088388,103
1767764428,6500.513950983684,13088400,103
1767764428,6549.556652704875,13088407,103
1767764428,6590.569814046224,13088413,103
1767764428,6616.148948669434,13088418,103
1767764428,6626.101732254028,13088422,103
1767764428,6625.572840372722,13088426,103
1767764428,6621.678272883098,13088423,103
1767764428,6620.235840479533,13088425,103
1767764428,6623.553435007731,13088429,103
1767764428,6630.669434865315,13088421,103
1767764428,6638.362407684326,13088420,103
1767764428,6643.6513264973955,13088412,103
1767764428,6645.189921061198,13088411,103
1767764428,6643.939812978108,13088398,103
1767764428,6641.968488693237,13088388,103
1767764428,6641.295353571574,13088375,103
1767764428,6642.737785975139,13088367,103
1767764428,6645.814975102742,13088348,103
1767764428,6648.940245310466,13088332,103
1767764428,6650.334596633911,13088320,103
1767764428,6648.940245310466,13088301,103
1767764428,6644.901434580485,13088283,103
1767764428,6639.372110366821,13088259,103
1767764428,6634.371678034465,13088238,103
1767764428,6631.29448890686,13088220,103
1767764428,6630.90984026591,13088202,103
1767764428,6632.9292456309,13088180,103
1767764428,6637.112299601237,13088155,103
1767764428,6643.0262724558515,13088135,103
1767764428,6650.526920954387,13088114,103
1767764428,6659.277677536011,13088094,103
1767764428,6692.213217417399,13087987,103
1767764428,6688.414812088013,13087968,103
1767764428,6685.337622960408,13087952,103
1767764428,6701.540946960449,13087923,103
1767764428,6714.9074872334795,13087917,103
1767764428,6728.322108586629,13087904,103
1767764428,6739.092270533244,13087899,103
1767764428,6745.294729868571,13087900,103
1767764428,6746.6410001118975,13087900,103
1767764428,6744.7177569071455,13087902,103
1767764428,6741.352081298828,13087905,103
1767764428,6738.130648930867,13087914,103
1767764428,6735.053459803264,13087916,103
1767764428,6730.678081512451,13087926,103
1767764428,6723.6582438151045,13087939,103
1767764428,6712.9842440287275,13087947,103
1767764428,6699.184974034627,13087965,103
1767764428,6684.279839197795,13087975,103
1767764428,6670.913298924764,13087990,103
1767764428,6661.34516398112,13088010,103
1767764428,6656.104326248169,13088022,103
1767764428,6653.459866841634,13088045,103
1767764428,6650.142272313436,13088065,103
1767764428,6595.618327458699,13088149,103
1767764428,6581.290165583293,13088170,103
1767764428,6573.741436004639,13088195,103
1767764428,6573.933760325114,13088217,103
1767764428,6580.232381820679,13088239,103
1767764428,6589.079300562541,13088259,103
1767764428,6596.243381500244,13088278,103
1767764428,6599.22440846761,13088297,103
1767764428,6597.685813903809,13088319,103
1767764428,6593.791246414185,13088339,103
1767764428,6590.569814046224,13088352,103
1767764428,6591.002543767293,13088371,103
1767764428,6596.147219340007,13088384,103
1767764428,6605.7634353637695,13088398,103
1767764428,6618.264516194661,13088411,103
1767764428,6631.438732147217,13088422,103
1767764428,6659.133434295654,13088446,103
1767764428,6662.643353144328,13088452,103
1767764428,6663.36456934611,13088456,103
1767764428,6661.34516398112,13088451,103
1767764428,6657.30635325114,13088457,103
1767764428,6652.354001998901,13088451,103
1767764428,6648.315191268921,13088441,103
1767764428,6646.776596705119,13088437,103
1767764428,6648.267110188802,13088426,103
1767764428,6652.209758758545,13088419,103
1767764428,6656.729380289714,13088406,103
1767764428,6660.09505589803,13088396,103
1767764428,6661.008596420288,13088378,103
1767764428,6659.566164016724,13088353,103
1767764428,6657.642920811971,13088340,103
1767764428,6657.642920811971,13088319,103
1767764428,6661.825974782308,13088297,103
1767764428,6670.047839482625,13088272,103
1767764428,6680.096785227458,13088242,103
1767764428,6688.366731007894,13088216,103
1767764428,6691.395839055379,13088188,103
1767764428,6687.549352645874,13088155,103
1767764428,6677.9812177022295,13088126,103
1767764428,6666.153271993001,13088093,103
1767764428,6656.008164087932,13088060,103
1767764428,6650.478839874268,13088025,103
1767764428,6650.190353393555,13087988,103
1767764428,6652.4020830790205,13087945,103
1767764428,6653.21946144104,13087908,103
1767764428,6639.612515767415,13087829,103
1767764428,6626.342137654622,13087791,103
1767764428,6613.408327102661,13087744,103
1767764428,6604.753732681274,13087707,103
1767764428,6602.253516515096,13087664,103
1767764428,6604.705651601155,13087617,103
1767764428,6609.081029891968,13087572,103
1767764428,6611.82165145874,13087529,103
1767764428,6611.100435256958,13087491,103
1767764428,6609.658002853394,13087355,103
1767764428,6618.601083755493,13087308,103
1767764428,6630.236705144246,13087269,103
1767764428,6638.314326604207,13087225,103
1767764428,6637.064218521118,13087177,103
1767764428,6624.5631376902265,13087141,103
1767764428,6606.003840764363,13087098,103
1767764428,6592.829624811809,13087059,103
1767764428,6599.464813868205,13087018,103
1767764428,6636.679569880168,13086978,103
1767764428,6705.675919850667,13086940,103
1767764428,6794.914404551188,13086909,103
1767764428,6881.65267308553,13086871,103
1767764428,6939.157644907634,13086834,103
1767764428,6945.888996124268,13086801,103
1767764428,6893.913348515828,13086769,103
1767764428,6792.750755945842,13086736,103
1767764428,6666.826407114665,13086708,103
1767764428,6547.921895980835,13086674,103
1767764428,6464.356978734334,13086650,103
1767764428,6432.094573974609,13086627,103
1767764428,6450.028816858928,13086598,103
1767764428,6502.292950948079,13086577,103
1767764428,6565.231084823608,13086554,103
1767764428,6616.966327031453,13086533,103
1767764428,6644.612948099772,13086517,103
1767764428,6647.497812906901,13086496,103
1767764428,6634.5640023549395,13086480,103
1767764428,6618.985732396443,13086476,103
1767764428,6611.677408218384,13086460,103
1767764428,6616.822083791097,13086448,103
1767764428,6631.198326746623,13086442,103
1767764428,6646.872758865356,13086428,103
1767764428,6656.200488408406,13086423,103
1767764428,6655.383110046387,13086423,103
1767764428,6646.199623743693,13086415,103
1767764428,6634.419759114583,13086413,103
1767764428,6625.861326853435,13086411,103
1767764428,6624.178489049275,13086412,103
1767764428,6628.361543019612,13086413,103
1767764428,6634.13127263387,13086408,103
1767764428,6636.391083399455,13086409,103
1767764428,6631.9676240285235,13086414,103
1767764428,6621.726353963216,13086415,103
1767764428,6610.042651494344,13086415,103
1767764428,6602.878570556641,13086420,103
1767764428,6604.513327280681,13086424,103
1767764428,6646.680434544881,13086430,103
1767764428,6656.2966505686445,13086432,103
1767764428,6657.835245132446,13086439,103
1767764428,6653.315623601277,13086447,103
1767764428,6647.786299387614,13086446,103
1767764428,6647.305488586426,13086447,103
1767764428,6655.719677607219,13086450,103
1767764428,6673.1250286102295,13086446,103
1767764428,6695.386568705241,13086449,103
1767764428,6715.965270996094,13086444,103
1767764428,6728.995243708293,13086443,103
1767764428,6731.399297714233,13086439,103
1767764428,6724.042892456055,13086440,103
1767764428,6711.157162984212,13086436,103
1767764428,6698.559919993083,13086430,103
1767764428,6691.636244455974,13086422,103
1767764428,6693.463325500488,13086421,103
1767764428,6703.800757726033,13086408,103
1767764428,6719.427108764648,13086406,103
1767764428,6735.630432764689,13086402,103
1767764428,6747.843027114868,13086389,103
1767764428,6752.987702687581,13086385,103
1767764428,6749.814351399739,13086372,103
1767764428,6739.044189453125,13086364,103
1767764428,6723.129351933797,13086362,103
1767764428,6705.291271209717,13086351,103
1767764428,6689.136028289795,13086342,103
1767764428,6676.77919069926,13086336,103
1767764428,6660.768191019694,13086318,103
1767764428,6655.479272206624,13086310,103
1767764428,6646.824677785237,13086305,103
1767764428,6634.5640023549395,13086303,103
1767764428,6620.6685702006025,13086293,103
1767764428,6608.407894770305,13086296,103
1767764428,6601.051489512126,13086290,103
1767764428,6600.089867909749,13086283,103
1767764428,6604.417165120442,13086283,103
1767764428,6610.667705535889,13086281,103
1767764428,6615.091164906819,13086279,103
1767764428,6610.379219055176,13086276,103
1767764428,6604.1286786397295,13086281,103
1767764428,6600.4745165507,13086279,103
1767764428,6603.31130027771,13086284,103
1767764428,6613.937218983968,13086286,103
1767764428,6629.707813262939,13086288,103
1767764428,6645.430326461792,13086285,103
1767764428,6654.85421816508,13086287,103
1767764428,6654.373407363892,13086284,103
1767764428,6619.562705357869,13086277,103
1767764428,6632.6407591501875,13086277,103
1767764428,6642.785867055257,13086275,103
1767764428,6645.766894022624,13086264,103
1767764428,6641.151110331218,13086262,103
1767764428,6651.7289479573565,13086205,103
1767764428,6663.989623387654,13086193,103
1767764428,6672.067244847615,13086176,103
1767764428,6675.673325856526,13086161,103
1767764428,6676.442623138428,13086147,103
1767764428,6679.087082544963,13086112,103
1767764428,6681.8757851918535,13086094,103
1767764428,6683.173974355062,13086079,103
1767764428,6680.385271708171,13086060,103
1767764428,6672.30765024821,13086044,103
1767764429,6660.046974817912,13086030,103
1767764429,6646.968921025594,13086020,103
1767764429,6637.545029322307,13086003,103
1767764429,6635.8621915181475,13085996,103
1767764429,6643.266677856445,13085982,103
1767764429,6674.904028574626,13085969,103
1767764429,6687.837839126587,13085966,103
1767764429,6691.828568776448,13085963,103
1767764429,6684.712568918864,13085965,103
1767764429,6668.028434117635,13085972,103
1767764429,6646.295785903931,13085977,103
1767764429,6625.476678212483,13085990,103
1767764429,6611.196597417195,13086001,103
1767764429,6606.869300206502,13086017,103
1767764429,6612.927516301473,13086042,103
1767764429,6626.43829981486,13086064,103
1767764429,6642.978191375732,13086090,103
1767764429,6657.450596491496,13086127,103
1767764429,6665.576299031575,13086165,103
1767764429,6664.903163909912,13086199,103
1767764429,6654.806137084961,13086247,103
1767764429,6614.514191945394,13086342,103
1767764429,6572.395165761312,13086576,103
1767764429,6584.752003351848,13086646,103
1767764429,6601.339975992839,13086717,103
1767764429,6621.005137761434,13086932,103
1767764429,6614.418029785156,13087010,103
1767764429,6612.590948740642,13087084,103
1767764429,6627.063353856404,13087165,103
1767764429,6666.20135307312,13087242,103
1767764429,6730.389595031738,13087324,103
1767764429,6809.963782628377,13087400,103
1767764429,6885.595321655273,13087472,103
1767764429,6934.301455815633,13087547,103
1767764429,6936.993996302287,13087623,103
1767764429,6885.979970296224,13087694,98
1767764429,6668.8938935597735,13087834,98
1767764429,6554.316679636638,13087897,98
1767764429,6472.386519114177,13087961,98
1767764429,6438.777844111125,13088018,98
1767764429,6453.490654627482,13088074,98
1767764429,6613.071759541829,13088217,98
1767764429,6640.285650889079,13088258,98
1767764429,6642.882029215495,13088297,98
1767764429,6629.467407862346,13088328,98
1767764429,6612.783273061116,13088347,98
1767764429,6603.551705678304,13088370,98
1767764429,6606.003840764363,13088384,98
1767764429,6617.302894592285,13088397,98
1767764429,6630.477110544841,13088405,98
1767764429,6638.506650924683,13088404,98
1767764429,6631.438732147217,13088400,98
1767764429,6623.409191767375,13088383,98
1767764429,6619.658867518107,13088369,98
1767764429,6622.639894485474,13088350,98
1767764429,6630.525191624959,13088326,98
1767764429,6638.506650924683,13088303,98
1767764429,6641.631921132405,13088270,98
1767764429,6637.593110402425,13088231,98
1767764429,6627.592245737712,13088191,98
1767764429,6616.485516230266,13088153,98
1767764429,6609.513759613037,13088111,98
1767764429,6610.523462295532,13088064,98
1767764429,6620.091597239177,13088018,98
1767764429,6634.852488835652,13087964,98
1767764429,6650.142272313436,13087912,98
1767764429,6661.200920740764,13087857,98
1767764429,6665.81670443217,13087800,98
1767764429,6664.518515268962,13087743,98
1767764429,6660.287380218506,13087681,98
1767764429,6656.248569488525,13087619,98
1767764429,6674.038569132487,13087375,98
1767764429,6685.385704040527,13087318,98
1767764429,6697.550217310588,13087250,98
1767764429,6709.810892740886,13087192,98
1767764429,6721.254189809163,13087134,98
1767764429,6730.870405832927,13087074,98
1767764429,6737.120946248372,13087015,98
1767764429,6733.755270640056,13086729,98
1767764429,6737.842162450154,13086673,98
1767764429,6744.285027186076,13086622,98
1767764429,6749.9105135599775,13086574,98
1767764429,6751.2087027231855,13086521,98
1767764429,6744.573513666789,13086471,98
1767764429,6728.995243708293,13086428,98
1767764429,6705.772082010905,13086380,98
1767764429,6678.846677144368,13086334,98
1767764429,6627.207597096761,13086076,98
1767764429,6627.303759256999,13086036,98
1767764429,6621.582110722859,13085998,98
1767764429,6586.434841156006,13085886,98
1767764429,6581.915219624837,13085849,98
1767764429,6585.377057393392,13085812,98
1767764429,6595.810651779175,13085782,98
1767764429,6609.465678532918,13085748,98
1767764429,6621.870597203572,13085715,98
1767764429,6629.27508354187,13085683,98
1767764429,6630.525191624959,13085653,98
1767764429,6627.159516016643,13085624,98
1767764429,6622.880299886067,13085594,98
1767764429,6621.437867482503,13085569,98
1767764429,6624.899705251058,13085545,98
1767764429,6632.736921310425,13085515,98
1767764429,6642.3531373341875,13085491,98
1767764429,6650.142272313436,13085465,98
1767764429,6653.21946144104,13085447,98
1767764429,6650.719245274861,13085421,98
1767764429,6643.699407577515,13085406,98
1767764429,6635.092894236247,13085387,98
1767764429,6627.784570058187,13085366,98
1767764429,6623.745759328206,13085356,98
1767764429,6623.409191767375,13085339,98
1767764429,6625.765164693196,13085327,98
1767764429,6629.996299743652,13085315,98
1767764429,6635.910272598267,13085308,98
1767764429,6643.89173189799,13085303,98
1767764429,6654.229164123535,13085295,98
1767764429,6666.297515233357,13085294,98
1767764429,6678.221623102824,13085290,98
1767764429,6686.876217524211,13085296,98
1767764429,6688.895622889201,13085295,98
1767764429,6682.500839233398,13085304,98
1767764429,6668.316920598348,13085310,98
1767764429,6649.949947992961,13085321,98
1767764429,6632.833083470662,13085336,98
1767764429,6622.014840443929,13085347,98
1767764429,6620.283921559651,13085369,98
1767764429,6627.015272776286,13085385,98
1767764429,6638.843218485515,13085408,98
1767764429,6651.20005607605,13085431,98
1767764429,6660.143136978149,13085462,98
1767764429,6663.941542307536,13085485,98
1767764429,6663.220326105754,13085518,98
1767764429,6660.672028859456,13085552,98
1767764429,6658.8930288950605,13085586,98
1767764429,6659.181515375773,13085617,98
1767764429,6657.162110010783,13085777,98
1767764429,6651.777029037476,13085821,98
1767764429,6647.353569666545,13085864,98
1767764429,6646.34386698405,13085910,98
1767764429,6649.661461512248,13085955,98
1767764429,6656.344731648763,13086004,98
1767764429,6663.076082865397,13086055,98
1767764429,6666.009028752645,13086105,98
1767764429,6661.970218022664,13086154,98
1767764429,6650.623083114624,13086203,98
1767764429,6634.419759114583,13086253,98
1767764429,6617.7356243133545,13086300,98
1767764429,6605.571111043294,13086352,98
1767764429,6601.243813832601,13086403,98
1767764429,6605.907678604126,13086450,98
1767764429,6617.831786473592,13086497,98
1767764429,6656.344731648763,13086640,98
1767764429,6659.758488337199,13086684,98
1767764429,6658.2198937733965,13086733,98
1767764429,6654.565731684367,13086777,98
1767764429,6651.632785797119,13086820,98
1767764429,6651.584704717,13086863,98
1767764429,6655.046542485555,13086906,98
1767764429,6661.056677500407,13086947,98
1767764429,6667.595704396565,13086987,98
1767764429,6672.067244847615,13087030,98
1767764429,6673.07694753011,13087064,98
1767764429,6670.432488123576,13087103,98
1767764429,6665.576299031575,13087136,98
1767764429,6660.623947779338,13087170,98
1767764429,6657.546758651733,13087200,98
1767764429,6657.210191090901,13087236,98
1767764429,6659.470001856486,13087272,98
1767764429,6663.028001785278,13087300,98
1767764429,6665.768623352051,13087332,98
1767764429,6665.672461191813,13087357,98
1767764429,6661.297082901001,13087382,98
1767764429,6652.882893880208,13087409,98
1767764429,6641.968488693237,13087432,98
1767764429,6631.198326746623,13087461,98
1767764429,6623.216867446899,13087482,98
1767764429,6620.476245880127,13087503,98
1767764429,6623.745759328206,13087528,98
1767764429,6632.11186726888,13087548,98
1767764429,6642.930110295613,13087573,98
1767764429,6651.969353357951,13087592,98
1767764429,6655.286947886149,13087611,98
1767764429,6650.575002034505,13087628,98
1767764429,6638.314326604207,13087649,98
1767764429,6621.870597203572,13087662,98
1767764429,6606.340408325195,13087686,98
1767764429,6596.43570582072,13087697,98
1767764429,6594.849030176799,13087721,98
1767764429,6600.9072462717695,13087732,98
1767764429,6610.427300135295,13087744,98
1767764429,6618.264516194661,13087763,98
1767764429,6620.572408040364,13087782,98
1767764429,6618.168354034424,13087796,98
1767764429,6617.062489191691,13087809,98
1767764429,6846.457322438558,13087877,98
1767764429,6899.009943008423,13087888,98
1767764429,6914.732456207275,13087901,98
1767764429,6882.950862248738,13087916,79
1767764429,6592.829624811809,13087946,79
1767764429,6505.6586265563965,13087961,79
1767764429,6458.298762639363,13087972,79
1767764429,6455.654303232829,13087980,79
1767764429,6489.214897155762,13087988,79
1767764429,6541.238625844319,13087999,79
1767764429,6591.579516728719,13088006,79
1767764429,6625.140110651652,13088016,79
1767764429,6636.439164479573,13088027,79
1767764429,6629.948218663533,13088035,79
1767764429,6616.148948669434,13088040,79
1767764429,6605.859597524007,13088054,79
1767764429,6605.7634353637695,13088058,79
1767764429,6616.004705429077,13088071,79
1767764429,6631.3425699869795,13088071,79
1767764429,6644.372542699178,13088085,79
1767764430,6649.324893951416,13088090,79
1767764430,6644.27638053894,13088099,79
1767764430,6632.688840230306,13088111,79
1767764430,6620.235840479533,13088115,79
1767764430,6613.216002782186,13088118,79
1767764430,6614.8026784261065,13088129,79
1767764430,6624.851624170939,13088136,79
1767764430,6639.85292116801,13088145,79
1767764430,6655.046542485555,13088154,79
1767764430,6670.384407043457,13088172,79
1767764430,6667.307217915853,13088181,79
1767764430,6658.5564613342285,13088188,79
1767764430,6646.776596705119,13088195,79
1767764430,6634.804407755534,13088203,79
1767764430,6624.899705251058,13088214,79
1767764430,6618.793408075969,13088225,79
1767764430,6617.11057027181,13088236,79
1767764430,6620.235840479533,13088250,79
1767764430,6627.351840337117,13088259,79
1767764430,6636.968056360881,13088272,79
1767764430,6647.305488586426,13088284,79
1767764430,6657.2582721710205,13088298,79
1767764430,6666.345596313477,13088317,79
1767764430,6674.904028574626,13088331,79
1767764430,6683.414379755656,13088349,79
1767764430,6692.068974177043,13088365,79
1767764430,6710.00321706136,13088418,79
1767764430,6708.7531089782715,13088444,79
1767764430,6704.329649607341,13088462,79
1767764430,6699.810028076172,13088486,79
1767764430,6699.569622675578,13088510,79
1767764430,6707.59916305542,13088532,79
1767764430,6725.004514058431,13088559,79
1767764430,6748.900810877482,13088585,79
1767764430,6772.989432017009,13088610,79
1767764430,6789.336999257405,13088639,79
1767764430,6791.019837061564,13088665,79
1767764430,6774.96075630188,13088691,79
1767764430,6743.611892064412,13088718,79
1767764430,6703.993082046509,13088748,79
1767764430,6665.864785512288,13088778,79
1767764430,6637.689272562663,13088812,79
1767764430,6644.516785939534,13088929,79
1767764430,6651.296218236287,13088965,79
1767764430,6650.142272313436,13088988,79
1767764430,6641.343434651692,13089025,79
1767764430,6627.976894378662,13089051,79
1767764430,6614.610354105632,13089084,79
1767764430,6604.849894841512,13089111,79
1767764430,6600.378354390462,13089141,79
1767764430,6601.29189491272,13089171,79
1767764430,6606.388489405314,13089198,79
1767764430,6614.321867624919,13089224,79
1767764430,6623.553435007731,13089250,79
1767764430,6644.372542699178,13089346,79
1767764430,6638.266245524089,13089370,79
1767764430,6626.919110616048,13089389,79
1767764430,6612.831354141235,13089404,79
1767764430,6599.464813868205,13089423,79
1767764430,6591.146787007649,13089433,79
1767764430,6590.473651885986,13089450,79
1767764430,6597.541570663452,13089462,79
1767764430,6610.234975814819,13089474,79
1767764430,6624.5631376902265,13089479,79
1767764430,6636.823813120524,13089486,79
1767764430,6644.516785939534,13089489,79
1767764430,6647.305488586426,13089493,79
1767764430,6646.536191304524,13089494,79
1767764430,6644.612948099772,13089493,79
1767764430,6643.603245417277,13089494,79
1767764430,6649.901866912842,13089464,79
1767764430,6649.757623672485,13089450,79
1767764430,6649.276812871297,13089437,79
1767764430,6649.517218271892,13089426,79
1767764430,6651.248137156169,13089408,79
1767764430,6654.421488444011,13089386,79
1767764430,6658.316055933635,13089371,79
1767764430,6661.922136942546,13089347,79
1767764430,6664.422353108724,13089326,79
1767764430,6665.81670443217,13089307,79
1767764430,6666.826407114665,13089282,79
1767764430,6668.701569239299,13089253,79
1767764430,6671.682596206665,13089232,79
1767764430,6674.904028574626,13089196,79
1767764430,6676.394542058309,13089169,79
1767764430,6674.134731292725,13089137,79
1767764430,6667.114893595378,13089111,79
1767764430,6655.719677607219,13089079,79
1767764430,6642.208894093831,13089049,79
1767764430,6629.755894343059,13089016,79
1767764430,6621.197462081909,13088989,79
1767764430,6618.120272954305,13088958,79
1767764430,6620.139678319295,13088923,79
1767764430,6625.284353892009,13088889,79
1767764430,6630.669434865315,13088856,79
1767764430,6634.515921274821,13088827,79
1767764430,6636.439164479573,13088792,79
1767764430,6637.689272562663,13088763,79
1767764430,6639.997164408366,13088731,79
1767764430,6644.901434580485,13088703,79
1767764430,6652.594407399495,13088670,79
1767764430,6661.681731541951,13088646,79
1767764430,6669.903596242269,13088614,79
1767764430,6674.4232177734375,13088586,79
1767764430,6673.557758331299,13088562,79
1767764430,6648.796002070109,13088486,79
1767764430,6641.776164372762,13088464,79
1767764430,6638.843218485515,13088444,79
1767764430,6640.285650889079,13088422,79
1767764430,6644.997596740723,13088406,79
1767764430,6651.248137156169,13088382,79
1767764430,6657.162110010783,13088367,79
1767764430,6661.056677500407,13088350,79
1767764430,6662.499109903972,13088332,79
1767764430,6661.393245061238,13088319,79
1767764430,6658.316055933635,13088304,79
1767764430,6653.507947921753,13088289,79
1767764430,6647.449731826782,13088276,79
1767764430,6640.910704930623,13088271,79
1767764430,6635.044813156128,13088256,79
1767764430,6631.3425699869795,13088246,79
1767764430,6631.102164586385,13088234,79
1767764430,6634.996732076009,13088220,79
1767764430,6642.785867055257,13088209,79
1767764430,6652.930974960327,13088194,79
1767764430,6663.124163945516,13088190,79
1767764430,6670.624812444051,13088181,79
1767764430,6673.50967725118,13088173,79
1767764430,6671.105623245239,13088160,79
1767764430,6664.518515268962,13088150,79
1767764430,6655.767758687337,13088140,79
1767764430,6647.161245346069,13088125,79
1767764430,6640.189488728841,13088111,79
1767764430,6635.429461797078,13088100,79
1767764430,6632.400353749593,13088087,79
1767764430,6612.63902982076,13088013,79
1767764430,6608.936786651611,13087995,79
1767764430,6607.686678568522,13087974,79
1767764430,6609.561840693156,13087951,79
1767764430,6615.043083826701,13087930,79
1767764430,6623.60151608785,13087906,79
1767764430,6634.275515874227,13087887,79
1767764430,6644.32446161906,13087865,79
1767764430,6650.478839874268,13087835,79
1767764430,6649.661461512248,13087805,79
1767764430,6640.670299530029,13087774,79
1767764430,6625.428597132365,13087748,79
1767764430,6609.994570414226,13087718,79
1767764430,6603.599786758423,13087689,79
1767764430,6616.485516230266,13087659,79
1767764430,6655.431191126506,13087628,79
1767764430,6720.052162806193,13087598,79
1767764430,6800.347566604614,13087567,79
1767764430,6877.758105595906,13087532,79
1767764430,6930.3107261657715,13087497,79
1767764430,6939.013401667277,13087467,79
1767764430,6895.06729443868,13087435,78
1767764430,6803.713242212932,13087400,78
1767764430,6683.702866236369,13087369,78
1767764430,6416.9009526570635,13087273,78
1767764430,6416.997114817302,13087237,78
1767764430,6458.106438318889,13087206,78
1767764430,6521.429220835368,13087172,78
1767764430,6585.713624954224,13087141,78
1767764430,6634.227434794108,13087110,78
1767764430,6659.181515375773,13087077,78
1767764430,6662.306785583496,13087049,78
1767764430,6651.921272277832,13087017,78
1767764430,6638.073921203613,13086993,78
1767764430,6628.169218699138,13086961,78
1767764430,6624.851624170939,13086932,78
1767764430,6626.4863808949785,13086905,78
1767764430,6629.611651102702,13086875,78
1767764430,6631.438732147217,13086848,78
1767764430,6631.150245666504,13086818,78
1767764430,6629.65973218282,13086791,78
1767764430,6628.794272740682,13086764,78
1767764430,6629.611651102702,13086733,78
1767764430,6631.9676240285235,13086704,78
1767764430,6634.419759114583,13086674,78
1767764430,6635.573705037435,13086642,78
1767764430,6634.9005699157715,13086614,78
1767764430,6633.313894271851,13086584,78
1767764430,6632.448434829712,13086554,78
1767764430,6633.890867233276,13086524,78
1767764430,6637.689272562663,13086491,78
1767764430,6648.315191268921,13086387,78
1767764430,6647.834380467732,13086352,78
1767764430,6646.34386698405,13086319,78
1767764430,6645.814975102742,13086283,78
1767764430,6652.594407399495,13086211,78
1767764430,6658.796866734822,13086177,78
1767764430,6664.085785547893,13086139,78
1767764430,6666.393677393596,13086098,78
1767764430,6665.528217951457,13086059,78
1767764430,6673.557758331299,13085899,78
1767764430,6685.241460800171,13085862,78
1767764430,6698.127190272014,13085819,78
1767764430,6709.137757619222,13085776,78
1767764430,6716.349919637044,13085741,78
1767764430,6719.619433085124,13085697,78
1767764430,6720.484892527263,13085659,78
1767764430,6721.206108729045,13085622,78
1767764430,6731.54354095459,13085474,78
1767764430,6728.274027506511,13085439,78
1767764430,6720.725297927856,13085406,78
1767764430,6710.820595423381,13085372,78
1767764430,6700.72356859843,13085340,78
1767764430,6692.59786605835,13085311,78
1767764430,6687.116622924805,13085289,78
1767764430,6682.981650034587,13085256,78
1767764430,6677.644650141398,13085231,78
1767764430,6668.557325998942,13085206,78
1767764430,6655.094623565674,13085183,78
1767764430,6638.747056325276,13085161,78
1767764430,6622.736056645711,13085148,78
1767764430,6610.523462295532,13085129,78
1767764430,6604.513327280681,13085110,78
1767764430,6604.705651601155,13085097,78
1767764430,6608.840624491374,13085087,78
1767764431,6613.45640818278,13085073,78
1767764431,6615.043083826701,13085060,78
1767764431,6612.110137939453,13085053,78
1767764431,6605.3307056427,13085044,78
1767764431,6592.829624811809,13085034,78
1767764431,6592.973868052165,13085032,78
1767764431,6598.45511118571,13085031,78
1767764431,6607.590516408284,13085029,78
1767764431,6617.447137832642,13085027,78
1767764431,6625.332434972127,13085036,78
1767764431,6629.755894343059,13085033,78
1767764431,6631.198326746623,13085037,78
1767764431,6631.582975387573,13085046,78
1767764431,6633.458137512207,13085050,78
1767764431,6638.410488764445,13085063,78
1767764431,6646.584272384644,13085068,78
1767764431,6655.9600830078125,13085078,78
1767764431,6663.989623387654,13085094,78
1767764431,6668.22075843811,13085104,78
1767764431,6667.547623316447,13085115,78
1767764431,6662.16254234314,13085128,78
1767764431,6653.940677642822,13085143,78
1767764431,6645.286083221436,13085155,78
1767764431,6638.60281308492,13085174,78
1767764431,6635.38138071696,13085195,78
1767764431,6635.669867197673,13085213,78
1767764431,6638.170083363851,13085229,78
1767764431,6641.439596811931,13085253,78
1767764431,6644.228299458821,13085341,78
1767764431,6643.410921096802,13085361,78
1767764431,6643.747488657634,13085388,78
1767764431,6645.622650782268,13085415,78
1767764431,6648.603677749634,13085444,78
1767764431,6653.315623601277,13085535,78
1767764431,6651.344299316406,13085555,78
1767764431,6648.315191268921,13085595,78
1767764431,6645.863056182861,13085628,78
1767764431,6645.574569702148,13085661,78
1767764431,6648.5075155893965,13085700,78
1767764431,6654.565731684367,13085729,78
1767764431,6662.306785583496,13085770,78
1767764431,6669.086217880249,13085806,78
1767764431,6672.451893488566,13085842,78
1767764431,6671.009461085002,13085885,78
1767764431,6664.903163909912,13085921,78
1767764431,6655.767758687337,13085961,78
1767764431,6646.391948064168,13085995,78
1767764431,6639.804840087891,13086039,78
1767764431,6638.025840123494,13086080,78
1767764431,6641.343434651692,13086117,78
1767764431,6647.593975067139,13086163,78
1767764431,6653.60411008199,13086207,78
1767764431,6655.912001927693,13086249,78
1767764431,6652.498245239258,13086293,78
1767764431,6643.507083257039,13086332,78
1767764431,6631.3425699869795,13086369,78
1767764431,6620.091597239177,13086408,78
1767764431,6614.321867624919,13086451,78
1767764431,6617.254813512166,13086490,78
1767764431,6629.371245702107,13086532,78
1767764431,6647.882461547852,13086575,78
1767764431,6667.451461156209,13086605,78
1767764431,6681.923866271973,13086640,78
1767764431,6686.7319742838545,13086677,78
1767764431,6626.967191696167,13086809,78
1767764431,6618.024110794067,13086840,78
1767764431,6620.139678319295,13086866,78
1767764431,6631.775299708049,13086889,78
1767764431,6648.170948028564,13086918,78
1767764431,6663.076082865397,13086944,78
1767764431,6671.586434046428,13086968,78
1767764431,6671.778758366902,13086989,78
1767764431,6665.191650390625,13087006,78
1767764431,6655.527353286743,13087030,78
1767764431,6652.546326319377,13087093,78
1767764431,6651.007731755574,13087099,78
1767764431,6644.805272420247,13087109,78
1767764431,6636.439164479573,13087109,78
1767764431,6629.65973218282,13087112,78
1767764431,6655.23886680603,13087104,78
1767764431,6663.316488265991,13087100,78
1767764431,6664.374272028605,13087092,78
1767764431,6657.883326212565,13087082,78
1767764431,6646.632353464763,13087072,78
1767764431,6635.717948277791,13087060,78
1767764431,6629.852056503296,13087050,78
1767764431,6632.11186726888,13087035,78
1767764431,6642.160813013713,13087021,78
1767764431,6686.683893203735,13086951,78
1767764431,6683.222055435181,13086934,78
1767764431,6674.71170425415,13086916,78
1767764431,6664.518515268962,13086896,78
1767764431,6655.286947886149,13086877,78
1767764431,6648.699839909871,13086855,78
1767764431,6634.804407755534,13086748,78
1767764431,6629.611651102702,13086728,78
1767764431,6624.41889444987,13086710,78
1767764431,6620.908975601196,13086689,78
1767764431,6623.8900025685625,13086650,78
1767764431,6630.765597025554,13086634,78
1767764431,6639.708677927653,13086617,78
1767764431,6648.267110188802,13086600,78
1767764431,6653.411785761516,13086584,78
1767764431,6652.882893880208,13086570,78
1767764431,6634.227434794108,13086550,78
1767764431,6620.716651280721,13086532,78
1767764431,6608.744462331136,13086525,78
1767764431,6600.763003031413,13086514,78
1767764431,6597.493489583333,13086507,78
1767764431,6597.301165262858,13086498,78
1767764431,6598.118543624878,13086495,78
1767764431,6598.551273345947,13086491,78
1767764431,6600.330273310344,13086493,78
1767764431,6608.359813690186,13086487,78
1767764431,6629.611651102702,13086484,78
1767764431,6669.759353001912,13086487,78
1767764431,6728.995243708293,13086487,78
1767764431,6800.395647684733,13086490,78
1767764431,6869.151592254639,13086490,78
1767764431,6917.328834533691,13086493,78
1767764431,6928.291320800781,13086498,78
1767764431,6893.672943115234,13086498,68
1767764431,6816.791296005249,13086511,68
1767764431,6712.743838628133,13086511,68
1767764431,6604.4652462005615,13086518,68
1767764431,6515.226761500041,13086529,68
1767764431,6461.520195007324,13086531,68
1767764431,6448.394060134888,13086543,68
1767764431,6469.309329986572,13086549,68
1767764431,6509.5531940460205,13086558,68
1767764431,6552.778085072835,13086563,68
1767764431,6586.386760075887,13086571,68
1767764431,6605.523029963176,13086577,68
1767764431,6612.63902982076,13086586,68
1767764431,6614.898840586345,13086592,68
1767764431,6619.274218877156,13086598,68
1767764431,6628.938515981038,13086601,68
1767764431,6642.305056254069,13086607,68
1767764431,6631.3425699869795,13086624,68
1767764431,6617.831786473592,13086623,68
1767764431,6610.138813654582,13086622,68
1767764431,6609.850327173869,13086621,68
1767764431,6615.331570307414,13086618,68
1767764431,6639.708677927653,13086585,68
1767764431,6639.035542805989,13086583,68
1767764431,6638.025840123494,13086572,68
1767764431,6635.38138071696,13086543,68
1767764431,6637.689272562663,13086530,68
1767764431,6643.362840016683,13086518,68
1767764431,6652.0655155181885,13086506,68
1767764431,6662.210623423259,13086495,68
1767764431,6671.249866485596,13086483,68
1767764431,6677.260001500447,13086469,68
1767764431,6679.423650105794,13086451,68
1767764431,6678.750514984131,13086436,68
1767764431,6677.211920420329,13086421,68
1767764431,6676.923433939616,13086403,68
1767764431,6679.327487945557,13086390,68
1767764431,6684.616406758626,13086373,68
1767764431,6691.828568776448,13086356,68
1767764431,6699.184974034627,13086337,68
1767764431,6705.483595530192,13086321,68
1767764431,6710.147460301717,13086302,68
1767764431,6713.849703470866,13086289,68
1767764431,6717.551946640015,13086272,68
1767764431,6721.590757369995,13086258,68
1767764431,6725.821892420451,13086243,68
1767764431,6729.668378829956,13086220,68
1767764431,6732.120513916016,13086205,68
1767764431,6732.841730117798,13086192,68
1767764431,6731.735865275065,13086173,68
1767764431,6697.069406509399,13086088,68
1767764431,6682.164271672566,13086074,68
1767764431,6665.672461191813,13086061,68
1767764431,6649.901866912842,13086048,68
1767764431,6628.409624099731,13086019,68
1767764431,6622.78413772583,13086005,68
1767764431,6618.31259727478,13085989,68
1767764431,6611.965894699097,13085978,68
1767764431,6602.397759755452,13085965,68
1767764431,6589.896678924561,13085953,68
1767764431,6577.2513548533125,13085940,68
1767764431,6568.5005982716875,13085928,68
1767764431,6567.442814509074,13085919,68
1767764431,6575.424273808797,13085910,68
1767764431,6590.425570805867,13085902,68
1767764431,6622.207164764404,13085891,68
1767764431,6630.236705144246,13085872,68
1767764431,6625.909407933553,13085862,68
1767764431,6621.534029642741,13085861,68
1767764431,6653.748353322347,13085833,68
1767764431,6647.401650746663,13085830,68
1767764431,6638.747056325276,13085825,68
1767764431,6632.6407591501875,13085828,68
1767764431,6632.544596989949,13085819,68
1767764431,6660.912434260051,13085813,68
1767764431,6666.778326034546,13085813,68
1767764431,6665.624380111694,13085807,68
1767764431,6658.460299173991,13085803,68
1767764432,6649.036407470703,13085802,68
1767764432,6641.824245452881,13085796,68
1767764432,6639.660596847534,13085796,68
1767764432,6642.497380574544,13085788,68
1767764432,6647.786299387614,13085784,68
1767764432,6644.757191340129,13085760,68
1767764432,6641.439596811931,13085750,68
1767764432,6642.545461654663,13085743,68
1767764432,6648.5075155893965,13085731,68
1767764432,6656.969785690308,13085718,68
1767764432,6643.410921096802,13085655,68
1767764432,6638.7951374053955,13085642,68
1767764432,6641.151110331218,13085620,68
1767764432,6649.853785832723,13085604,68
1767764432,6649.998029073079,13085500,68
1767764432,6643.939812978108,13085480,68
1767764432,6643.795569737752,13085463,68
1767764432,6648.651758829753,13085437,68
1767764432,6654.517650604248,13085416,68
1767764432,6657.2582721710205,13085397,68
1767764432,6632.448434829712,13085341,68
1767764432,6622.736056645711,13085325,68
1767764432,6637.304623921712,13085282,68
1767764432,6651.296218236287,13085264,68
1767764432,6662.1144612630205,13085247,68
1767764432,6666.249434153239,13085241,68
1767764432,6663.124163945516,13085230,68
1767764432,6654.6618938446045,13085218,68
1767764432,6645.141839981079,13085210,68
1767764432,6638.554732004802,13085208,68
1767764432,6637.352705001831,13085205,68
1767764432,6641.151110331218,13085199,68
1767764432,6647.401650746663,13085195,68
1767764432,6653.075218200684,13085199,68
1767764432,6655.863920847575,13085200,68
1767764432,6654.758056004842,13085199,68
1767764432,6650.623083114624,13085206,68
1767764432,6645.238002141316,13085213,68
1767764432,6636.054515838623,13085250,68
1767764432,6636.487245559692,13085263,68
1767764432,6636.823813120524,13085278,68
1767764432,6637.256542841594,13085296,68
1767764432,6638.410488764445,13085314,68
1767764432,6640.670299530029,13085329,68
1767764432,6643.9878940582275,13085347,68
1767764432,6647.401650746663,13085368,68
1767764432,6649.8057047526045,13085385,68
1767764432,6650.334596633911,13085414,68
1767764432,6648.36327234904,13085434,68
1767764432,6644.372542699178,13085453,68
1767764432,6639.516353607178,13085471,68
1767764432,6635.814110438029,13085503,68
1767764432,6634.996732076009,13085525,68
1767764432,6637.4969482421875,13085553,68
1767764432,6642.978191375732,13085577,68
1767764432,6649.901866912842,13085599,68
1767764432,6656.248569488525,13085628,68
1767764432,6660.335461298625,13085651,68
1767764432,6658.748785654704,13085730,68
1767764432,6659.037272135417,13085760,68
1767764432,6662.499109903972,13085781,68
1767764432,6668.461163838704,13085809,68
1767764432,6674.134731292725,13085834,68
1767764432,6675.625244776408,13085858,68
1767764432,6669.663190841675,13085884,68
1767764432,6655.431191126506,13085906,68
1767764432,6590.233246485393,13085991,68
1767764432,6594.0797328948975,13086011,68
1767764432,6605.4268678029375,13086028,68
1767764432,6617.976029713948,13086044,68
1767764432,6625.717083613078,13086060,68
1767764432,6625.5247592926025,13086072,68
1767764432,6618.6972459157305,13086083,68
1767764432,6610.1868947347,13086098,68
1767764432,6605.71535428365,13086111,68
1767764432,6608.648300170898,13086117,68
1767764432,6617.92794863383,13086123,68
1767764432,6628.073056538899,13086126,68
1767764432,6632.208029429118,13086132,68
1767764432,6626.678705215454,13086137,68
1767764432,6614.418029785156,13086136,68
1767764432,6605.378786722819,13086133,68
1767764432,6613.264083862305,13086124,68
1767764432,6648.699839909871,13086122,68
1767764432,6713.27273050944,13086110,68
1767764432,6796.06835047404,13086099,68
1767764432,6875.690619150798,13086083,68
1767764432,6926.464239756267,13086068,68
1767764432,6928.147077560425,13086048,68
1767764432,6873.526970545451,13086024,69
1767764432,6772.460540135701,13086002,69
1767764432,6649.036407470703,13085976,69
1767764432,6533.449490865071,13085951,69
1767764432,6451.615492502849,13085919,69
1767764432,6417.04519589742,13085890,69
1767764432,6427.863438924153,13085853,69
1767764432,6469.597816467285,13085818,69
1767764432,6522.102355957031,13085780,69
1767764432,6567.5389766693115,13085737,69
1767764432,6596.3395436604815,13085695,69
1767764432,6608.455975850423,13085646,69
1767764432,6611.148516337077,13085604,69
1767764432,6612.975597381592,13085558,69
1767764432,6619.658867518107,13085505,69
1767764432,6631.246407826741,13085457,69
1767764432,6643.6513264973955,13085401,69
1767764432,6651.7289479573565,13085351,69
1767764432,6652.4020830790205,13085295,69
1767764432,6646.536191304524,13085242,69
1767764432,6638.650894165039,13085189,69
1767764432,6634.5640023549395,13085131,69
1767764432,6638.362407684326,13085072,69
1767764432,6650.8154074351,13085018,69
1767764432,6668.990055720012,13084962,69
1767764432,6687.837839126587,13084906,69
1767764432,6702.791055043538,13084845,69
1767764432,6711.3494873046875,13084791,69
1767764432,6713.801622390747,13084732,69
1767764432,6711.830298105876,13084673,69
1767764432,6707.262595494588,13084622,69
1767764432,6701.396703720093,13084564,69
1767764432,6675.481001536052,13084405,69
1767764432,6664.710839589437,13084358,69
1767764432,6655.6715965271,13084304,69
1767764432,6650.7673263549805,13084258,69
1767764432,6651.536623636882,13084210,69
1767764432,6657.498677571614,13084164,69
1767764432,6666.441758473714,13084128,69
1767764432,6675.577163696289,13084076,69
1767764432,6682.597001393636,13084041,69
1767764432,6687.020460764567,13084001,69
1767764432,6689.9534066518145,13083962,69
1767764432,6693.030595779419,13083927,69
1767764432,6698.319514592488,13083896,69
1767764432,6706.637541453044,13083863,69
1767764432,6716.92689259847,13083836,69
1767764432,6727.264324824016,13083807,69
1767764432,6735.149621963501,13083783,69
1767764432,6739.044189453125,13083761,69
1767764432,6739.044189453125,13083741,69
1767764432,6736.447811126709,13083714,69
1767764432,6733.082135518392,13083700,69
1767764432,6730.245351791382,13083679,69
1767764432,6728.1778653462725,13083661,69
1767764432,6726.014216740926,13083654,69
1767764432,6722.408135732015,13083642,69
1767764432,6716.013352076213,13083630,69
1767764432,6706.4932982126875,13083625,69
1767764432,6694.905757904053,13083616,69
1767764432,6683.173974355062,13083607,69
1767764432,6673.4615961710615,13083601,69
1767764432,6667.066812515259,13083605,69
1767764432,6663.653055826823,13083600,69
1767764432,6661.72981262207,13083600,69
1767764432,6659.373839696248,13083599,69
1767764432,6654.902299245198,13083601,69
1767764432,6647.642056147258,13083603,69
1767764432,6638.073921203613,13083610,69
1767764432,6627.832651138306,13083612,69
1767764432,6618.985732396443,13083622,69
1767764432,6612.975597381592,13083625,69
1767764432,6609.898408253987,13083631,69
1767764432,6608.504056930542,13083642,69
1767764432,6607.205867767334,13083648,69
1767764432,6590.521732966105,13083725,69
1767764432,6593.502759933472,13083737,69
1767764432,6597.397327423096,13083750,69
1767764432,6600.330273310344,13083764,69
1767764432,6601.8688678741455,13083785,69
1767764432,6623.793840408325,13083856,69
1767764432,6639.660596847534,13083884,69
1767764432,6656.969785690308,13083900,69
1767764432,6680.433352788289,13083951,69
1767764432,6681.394974390666,13083969,69
1767764432,6675.7214069366455,13083992,69
1767764432,6666.9706503550215,13084018,69
1767764432,6659.662326176961,13084044,69
1767764432,6657.017866770427,13084072,69
1767764432,6659.421920776367,13084103,69
1767764432,6664.807001749675,13084132,69
1767764432,6669.374704360962,13084157,69
1767764432,6669.278542200725,13084188,69
1767764432,6662.739515304565,13084218,69
1767764432,6650.719245274861,13084250,69
1767764432,6636.775732040405,13084280,69
1767764432,6625.572840372722,13084316,69
1767764432,6620.908975601196,13084347,69
1767764432,6623.697678248088,13084378,69
1767764432,6632.11186726888,13084416,69
1767764432,6642.305056254069,13084450,69
1767764432,6654.373407363892,13084518,69
1767764432,6653.844515482585,13084553,69
1767764432,6651.1038939158125,13084589,69
1767764432,6649.228731791179,13084623,69
1767764432,6650.863488515218,13084652,69
1767764432,6656.440893809001,13084691,69
1767764432,6664.614677429199,13084722,69
1767764432,6671.971082687378,13084752,69
1767764432,6675.481001536052,13084784,69
1767764432,6673.269271850586,13084813,69
1767764432,6653.940677642822,13084870,69
1767764432,6642.112731933594,13084903,69
1767764432,6632.881164550781,13084923,69
1767764432,6628.457705179851,13084950,69
1767764432,6629.419326782227,13084971,69
1767764432,6634.371678034465,13084995,69
1767764432,6641.006867090861,13085017,69
1767764432,6646.632353464763,13085036,69
1767764432,6649.084488550822,13085048,69
1767764432,6647.353569666545,13085064,69
1767764432,6641.535758972168,13085074,69
1767764432,6632.833083470662,13085089,69
1767764432,6623.409191767375,13085098,69
1767764432,6615.860462188721,13085107,69
1767764432,6612.350543340047,13085107,69
1767764432,6613.792975743611,13085115,69
1767764432,6619.94735399882,13085121,69
1767764432,6629.130840301514,13085117,69
1767764433,6638.843218485515,13085118,69
1767764433,6646.584272384644,13085120,69
1767764433,6650.671164194743,13085110,69
1767764433,6650.863488515218,13085106,69
1767764433,6648.36327234904,13085092,69
1767764433,6645.430326461792,13085089,69
1767764433,6644.468704859416,13085076,69
1767764433,6646.920839945476,13085063,69
1767764433,6652.257839838664,13085053,69
1767764433,6658.748785654704,13085040,69
1767764433,6663.653055826823,13085026,69
1767764433,6664.614677429199,13085017,69
1767764433,6660.431623458862,13085009,69
1767764433,6651.632785797119,13084994,69
1767764433,6640.718380610148,13084986,69
1767764433,6631.0060024261475,13084976,69
1767764433,6625.62092145284,13084962,69
1767764433,6626.053651173909,13084955,69
1767764433,6631.775299708049,13084946,69
1767764433,6640.189488728841,13084936,69
1767764433,6648.219029108684,13084931,69
1767764433,6652.882893880208,13084927,69
1767764433,6652.882893880208,13084918,69
1767764433,6648.796002070109,13084917,69
1767764433,6643.170515696208,13084920,69
1767764433,6639.564434687297,13084918,69
1767764433,6641.006867090861,13084921,69
1767764433,6648.459434509277,13084929,69
1767764433,6660.287380218506,13084934,69
1767764433,6673.07694753011,13084944,69
1767764433,6682.741244633992,13084952,69
1767764433,6686.3954067230225,13084963,69
1767764433,6683.125893274943,13084976,69
1767764433,6674.952109654744,13084993,69
1767764433,6665.480136871338,13085010,69
1767764433,6658.652623494466,13085026,69
1767764433,6656.87362353007,13085049,69
1767764433,6659.421920776367,13085069,69
1767764433,6662.979920705159,13085091,69
1767764433,6663.316488265991,13085114,69
1767764433,6657.402515411377,13085142,69
1767764433,6645.045677820842,13085165,69
1767764433,6629.178921381633,13085197,69
1767764433,6614.562273025513,13085223,69
1767764433,6611.725489298503,13085305,69
1767764433,6621.197462081909,13085340,69
1767764433,6629.034678141276,13085364,69
1767764433,6632.208029429118,13085393,69
1767764433,6631.198326746623,13085413,69
1767764433,6629.178921381633,13085441,69
1767764433,6633.458137512207,13085483,69
1767764433,6638.843218485515,13085506,69
1767764433,6640.814542770386,13085526,69
1767764433,6634.948650995891,13085544,69
1767764433,6620.76473236084,13085548,69
1767764433,6604.080597559611,13085571,69
1767764433,6596.772273381551,13085579,69
1767764433,6612.20630009969,13085589,69
1767764433,6659.133434295654,13085593,69
1767764433,6735.678513844808,13085593,69
1767764433,6827.032566070557,13085591,69
1767764433,6908.962726593018,13085589,69
1767764433,6955.12056350708,13085577,69
1767764433,6946.658293406169,13085568,72
1767764433,6879.392862319946,13085556,72
1767764433,6766.7388916015625,13085542,72
1767764433,6635.477542877197,13085524,72
1767764433,6517.198085784912,13085502,72
1767764433,6437.9604657491045,13085480,72
1767764433,6410.121520360311,13085451,72
1767764433,6621.2936242421465,13085283,72
1767764433,6628.698110580444,13085242,72
1767764433,6620.6685702006025,13085200,72
1767764433,6606.869300206502,13085154,72
1767764433,6595.137516657512,13085012,72
1767764433,6603.551705678304,13084964,72
1767764433,6614.369948705037,13084912,72
1767764433,6624.995867411296,13084857,72
1767764433,6633.6023807525635,13084805,72
1767764433,6638.60281308492,13084761,72
1767764433,6638.7951374053955,13084709,72
1767764433,6633.794705073039,13084665,72
1767764433,6624.659299850464,13084611,72
1767764433,6614.418029785156,13084563,72
1767764433,6607.494354248047,13084521,72
1767764433,6607.879002888997,13084474,72
1767764433,6617.543299992879,13084430,72
1767764433,6634.948650995891,13084393,72
1767764433,6654.517650604248,13084355,72
1767764433,6668.749650319417,13084316,72
1767764433,6671.4902718861895,13084282,72
1767764433,6660.864353179932,13084250,72
1767764433,6640.141407648723,13084221,72
1767764433,6616.870164871216,13084198,72
1767764433,6599.849462509155,13084174,72
1767764433,6595.666408538818,13084160,72
1767764433,6606.436570485433,13084141,72
1767764433,6628.698110580444,13084128,72
1767764433,6655.431191126506,13084121,72
1767764433,6701.733271280925,13084116,72
1767764433,6702.839136123657,13084118,72
1767764433,6702.983379364014,13084124,72
1767764433,6706.012487411499,13084143,72
1767764433,6713.465054829915,13084156,72
1767764433,6724.2832978566485,13084171,72
1767764433,6735.534270604451,13084189,72
1767764433,6744.14078394572,13084212,72
1767764433,6748.468081156413,13084242,72
1767764433,6748.900810877482,13084267,72
1767764433,6747.554540634155,13084297,72
1767764433,6746.592919031779,13084331,72
1767764433,6747.169891993205,13084363,72
1767764433,6748.468081156413,13084395,72
1767764433,6748.804648717244,13084436,72
1767764433,6745.919783910115,13084473,72
1767764433,6738.563378651937,13084517,72
1767764433,6726.735432942708,13084557,72
1767764433,6712.118784586589,13084602,72
1767764433,6697.165568669637,13084643,72
1767764433,6684.424082438151,13084685,72
1767764433,6675.096352895101,13084729,72
1767764433,6668.701569239299,13084771,72
1767764433,6663.268407185872,13084814,72
1767764433,6656.2966505686445,13084856,72
1767764433,6645.863056182861,13084899,72
1767764433,6631.3425699869795,13084940,72
1767764433,6613.744894663493,13084981,72
1767764433,6595.618327458699,13085018,72
1767764433,6580.376625061035,13085059,72
1767764433,6590.521732966105,13085187,72
1767764433,6606.532732645671,13085224,72
1767764433,6621.341705322266,13085250,72
1767764433,6631.72721862793,13085274,72
1767764433,6635.814110438029,13085298,72
1767764433,6633.458137512207,13085321,72
1767764433,6626.101732254028,13085351,72
1767764433,6616.1008675893145,13085370,72
1767764433,6606.388489405314,13085381,72
1767764433,6598.984003067017,13085394,72
1767764433,6594.993273417155,13085411,72
1767764433,6594.656705856323,13085428,72
1767764433,6597.926219304402,13085434,72
1767764433,6604.417165120442,13085445,72
1767764433,6613.600651423137,13085456,72
1767764433,6624.755462010701,13085460,72
1767764433,6636.871894200643,13085471,72
1767764433,6648.603677749634,13085477,72
1767764433,6658.412218093872,13085482,72
1767764433,6664.470434188843,13085488,72
1767764433,6665.624380111694,13085496,72
1767764433,6662.258704503377,13085509,72
1767764433,6655.6235154469805,13085504,72
1767764433,6648.459434509277,13085517,72
1767764433,6643.603245417277,13085540,72
1767764433,6647.257407506307,13085548,72
1767764433,6649.998029073079,13085558,72
1767764433,6649.324893951416,13085565,72
1767764433,6643.699407577515,13085581,72
1767764433,6633.987029393514,13085597,72
1767764433,6622.736056645711,13085607,72
1767764433,6613.648732503255,13085626,72
1767764433,6609.177192052205,13085645,72
1767764433,6610.042651494344,13085662,72
1767764433,6614.418029785156,13085691,72
1767764433,6618.985732396443,13085708,72
1767764433,6620.38008371989,13085738,72
1767764433,6616.67784055074,13085762,72
1767764433,6608.263651529948,13085791,72
1767764433,6598.166624704997,13085822,72
1767764433,6590.906381607056,13085852,72
1767764433,6589.94476000468,13085892,72
1767764433,6596.483786900838,13085930,72
1767764433,6608.407894770305,13085964,72
1767764433,6621.6301918029785,13086002,72
1767764433,6631.775299708049,13086036,72
1767764433,6635.8621915181475,13086082,72
1767764433,6634.323596954346,13086119,72
1767764433,6630.477110544841,13086166,72
1767764433,6629.852056503296,13086210,72
1767764433,6637.256542841594,13086252,72
1767764433,6654.902299245198,13086302,72
1767764433,6681.298812230428,13086347,72
1767764433,6711.445649464925,13086393,72
1767764433,6762.8443241119385,13086617,72
1767764433,6758.661270141602,13086663,72
1767764433,6759.382486343384,13086704,72
1767764433,6766.642729441325,13086745,72
1767764433,6778.278350830078,13086786,72
1767764433,6716.2056763966875,13087024,72
1767764433,6704.810460408528,13087051,72
1767764433,6702.021757761638,13087081,72
1767764433,6705.050865809123,13087101,72
1767764433,6708.705027898152,13087121,72
1767764433,6657.787164052327,13087183,72
1767764433,6636.102596918742,13087191,72
1767764433,6620.620489120483,13087198,72
1767764433,6614.418029785156,13087201,72
1767764433,6616.870164871216,13087202,72
1767764433,6623.986164728801,13087205,72
1767764433,6630.09246190389,13087199,72
1767764433,6630.284786224365,13087195,72
1767764433,6622.39948908488,13087191,72
1767764433,6607.830921808879,13087183,72
1767764433,6589.848597844441,13087167,72
1767764433,6572.635571161906,13087156,72
1767764433,6559.028625488281,13087139,72
1767764433,6549.893220265706,13087126,72
1767764433,6544.123490651448,13087101,72
1767764433,6540.228923161824,13087080,72
1767764433,6536.815166473389,13087057,72
1767764433,6534.266869227092,13087032,72
1767764433,6533.93030166626,13087006,72
1767764433,6537.055571873982,13086982,72
1767764433,6543.690760930379,13086952,72
1767764433,6552.153031031291,13086922,72
1767764434,6559.942166010539,13086886,72
1767764434,6565.471490224202,13086849,72
1767764434,6568.8371658325195,13086822,72
1767764434,6571.914354960124,13086786,72
1767764434,6577.491760253906,13086749,72
1767764434,6631.246407826741,13086593,72
1767764434,6641.872326533,13086549,72
1767764434,6651.488542556763,13086508,72
1767764434,6666.249434153239,13086469,72
1767764434,6693.511406580607,13086425,72
1767764434,6737.553675969441,13086388,72
1767764434,6795.443296432495,13086344,72
1767764434,6855.448484420776,13086300,72
1767764434,6899.442672729492,13086259,72
1767764434,6908.962726593018,13086218,72
1767764434,6871.9883759816485,13086176,77
1767764434,6789.000431696574,13086137,77
1767764434,6674.567461013794,13086093,77
1767764434,6553.980112075806,13086052,77
1767764434,6455.1254113515215,13086009,77
1767764434,6399.303277333577,13085970,77
1767764434,6394.35092608134,13085925,77
1767764434,6433.344682057698,13085888,77
1767764434,6497.917572657268,13085850,77
1767764434,6565.856138865153,13085810,77
1767764434,6618.601083755493,13085776,77
1767764434,6646.872758865356,13085740,77
1767764434,6652.498245239258,13085700,77
1767764434,6644.564867019653,13085668,77
1767764434,6634.708245595296,13085632,77
1767764434,6631.198326746623,13085603,77
1767764434,6636.391083399455,13085569,77
1767764434,6646.968921025594,13085538,77
1767764434,6656.729380289714,13085510,77
1767764434,6660.1912180582685,13085481,77
1767764434,6655.335028966268,13085455,77
1767764434,6643.843650817871,13085427,77
1767764434,6630.380948384603,13085409,77
1767764434,6620.283921559651,13085384,77
1767764434,6617.158651351929,13085364,77
1767764434,6621.534029642741,13085345,77
1767764434,6654.03683980306,13085288,77
1767764434,6661.441326141357,13085272,77
1767764434,6664.662758509318,13085258,77
1767764434,6663.508812586467,13085246,77
1767764434,6658.5564613342285,13085235,77
1767764434,6650.863488515218,13085226,77
1767764434,6641.583840052287,13085217,77
1767764434,6632.3041915893555,13085205,77
1767764434,6625.140110651652,13085202,77
1767764434,6622.111002604167,13085195,77
1767764434,6624.995867411296,13085193,77
1767764434,6634.083191553752,13085189,77
1767764434,6647.978623708089,13085190,77
1767764434,6663.79729906718,13085190,77
1767764434,6678.029298782349,13085188,77
1767764434,6687.982082366943,13085195,77
1767764434,6692.501703898112,13085195,77
1767764434,6692.261298497518,13085195,77
1767764434,6689.520676930745,13085197,77
1767764434,6687.3570283253985,13085208,77
1767764434,6688.366731007894,13085207,77
1767764434,6693.944136301677,13085217,77
1767764434,6703.800757726033,13085222,77
1767764434,6716.061433156331,13085232,77
1767764434,6728.466351826985,13085238,77
1767764434,6738.948027292888,13085250,77
1767764434,6746.54483795166,13085256,77
1767764434,6750.920216242473,13085268,77
1767764434,6752.314567565918,13085280,77
1767764434,6751.160621643066,13085291,77
1767764434,6747.794946034749,13085306,77
1767764434,6723.369757334392,13085334,77
1767764434,6710.0512981414795,13085347,77
1767764434,6695.050001144409,13085360,77
1767764434,6679.519812266032,13085374,77
1767764434,6664.614677429199,13085387,77
1767764434,6650.863488515218,13085397,77
1767764434,6638.554732004802,13085415,77
1767764434,6627.496083577474,13085423,77
1767764434,6617.543299992879,13085433,77
1767764434,6608.744462331136,13085439,77
1767764434,6601.051489512126,13085454,77
1767764434,6594.656705856323,13085466,77
1767764434,6590.425570805867,13085477,77
1767764434,6588.165760040283,13085491,77
1767764434,6587.684949239095,13085501,77
1767764434,6588.2619222005205,13085512,77
1767764434,6589.175462722778,13085513,77
1767764434,6590.281327565511,13085523,77
1767764434,6591.96416536967,13085529,77
1767764434,6594.80094909668,13085535,77
1767764434,6599.560976028442,13085544,77
1767764434,6626.053651173909,13085545,77
1767764434,6634.804407755534,13085547,77
1767764434,6640.045245488484,13085549,77
1767764434,6639.85292116801,13085546,77
1767764434,6633.890867233276,13085544,77
1767764434,6623.649597167969,13085544,77
1767764434,6612.013975779216,13085539,77
1767764434,6602.782408396403,13085534,77
1767764434,6599.080165227254,13085532,77
1767764434,6603.215138117473,13085527,77
1767764434,6614.898840586345,13085515,77
1767764434,6631.679137547811,13085511,77
1767764434,6649.372975031535,13085502,77
1767764434,6671.297947565715,13085479,77
1767764434,6666.297515233357,13085466,77
1767764434,6659.806569417317,13085459,77
1767764434,6655.815839767456,13085449,77
1767764434,6657.162110010783,13085439,77
1767764434,6682.933568954468,13085408,77
1767764434,6686.203082402547,13085401,77
1767764434,6681.298812230428,13085386,77
1767764434,6668.701569239299,13085386,77
1767764434,6651.536623636882,13085374,77
1767764434,6634.179353713989,13085363,77
1767764434,6621.245543162028,13085361,77
1767764434,6615.620056788127,13085356,77
1767764434,6617.543299992879,13085352,77
1767764434,6624.707380930583,13085347,77
1767764434,6633.506218592326,13085344,77
1767764434,6640.670299530029,13085350,77
1767764434,6644.564867019653,13085343,77
1767764434,6645.334164301555,13085349,77
1767764434,6663.893461227417,13085366,77
1767764434,6671.394109725952,13085371,77
1767764434,6675.673325856526,13085383,77
1767764434,6675.048271814982,13085391,77
1767764434,6660.575866699219,13085412,77
1767764434,6651.20005607605,13085424,77
1767764434,6644.32446161906,13085434,77
1767764434,6642.497380574544,13085448,77
1767764434,6646.968921025594,13085458,77
1767764434,6657.354434331258,13085472,77
1767764434,6671.394109725952,13085484,77
1767764434,6685.337622960408,13085496,77
1767764434,6694.953838984172,13085511,77
1767764434,6696.973244349162,13085524,77
1767764434,6689.472595850627,13085539,77
1767764434,6673.1250286102295,13085554,77
1767764434,6650.8154074351,13085574,77
1767764434,6627.303759256999,13085587,77
1767764434,6607.927083969116,13085601,77
1767764434,6597.349246342977,13085613,77
1767764434,6597.397327423096,13085625,77
1767764434,6606.628894805908,13085646,77
1767764434,6620.812813440959,13085660,77
1767764434,6634.419759114583,13085673,77
1767764434,6642.401218414307,13085690,77
1767764434,6641.7280832926435,13085697,77
1767764434,6633.121569951375,13085707,77
1767764434,6620.524326960246,13085720,77
1767764434,6609.369516372681,13085731,77
1767764434,6604.753732681274,13085736,77
1767764434,6608.455975850423,13085750,77
1767764434,6618.74532699585,13085757,77
1767764434,6630.717515945435,13085762,77
1767764434,6639.227867126465,13085768,77
1767764434,6641.872326533,13085780,77
1767764434,6640.526056289673,13085784,77
1767764434,6641.872326533,13085787,77
1767764434,6655.046542485555,13085793,77
1767764434,6687.3570283253985,13085801,77
1767764434,6739.957729975383,13085805,77
1767764434,6805.01143137614,13085810,77
1767764434,6866.362889607747,13085820,77
1767764434,6904.298861821492,13085819,77
1767764434,6901.654402414958,13085822,89
1767764434,6850.784619649251,13085828,89
1767764434,6757.074594497681,13085830,89
1767764434,6638.362407684326,13085832,89
1767764434,6520.756085713704,13085841,89
1767764434,6430.123249689738,13085838,89
1767764434,6384.15773709615,13085846,89
1767764434,6387.379169464111,13085850,89
1767764434,6430.219411849976,13085855,89
1767764434,6493.638356526692,13085860,89
1767764434,6556.23992284139,13085865,89
1767764434,6601.388057072957,13085875,89
1767764434,6622.255245844523,13085875,89
1767764434,6622.159083684285,13085885,89
1767764434,6611.388921737671,13085896,89
1767764434,6602.2054354349775,13085899,89
1767764434,6602.974732716878,13085913,89
1767764434,6615.571975708008,13085926,89
1767764434,6635.38138071696,13085932,89
1767764434,6666.489839553833,13085979,89
1767764434,6658.07565053304,13085992,89
1767764434,6645.91113726298,13086010,89
1767764434,6636.006434758504,13086029,89
1767764434,6632.448434829712,13086048,89
1767764434,6635.717948277791,13086063,89
1767764434,6642.882029215495,13086085,89
1767764434,6649.421056111653,13086103,89
1767764434,6651.680866877238,13086127,89
1767764434,6648.940245310466,13086144,89
1767764434,6642.930110295613,13086169,89
1767764434,6637.1603806813555,13086196,89
1767764434,6634.612083435059,13086213,89
1767764434,6636.58340771993,13086235,89
1767764434,6642.016569773356,13086261,89
1767764434,6648.36327234904,13086284,89
1767764434,6652.882893880208,13086305,89
1767764434,6654.084920883179,13086326,89
1767764434,6652.498245239258,13086348,89
1767764434,6650.863488515218,13086371,89
1767764434,6652.0655155181885,13086389,89
1767764434,6657.787164052327,13086411,89
1767764434,6667.980353037517,13086432,89
1767764434,6680.5775960286455,13086447,89
1767764434,6708.079973856608,13086493,89
1767764434,6711.6860548655195,13086502,89
1767764434,6714.811325073242,13086519,89
1767764434,6719.427108764648,13086522,89
1767764434,6726.110378901164,13086528,89
1767764434,6734.139919281006,13086532,89
1767764434,6741.159756978353,13086531,89
1767764434,6745.390892028809,13086533,89
1767764434,6746.064027150472,13086525,89
1767764434,6744.0446217854815,13086520,89
1767764434,6741.111675898234,13086509,89
1767764434,6738.899946212769,13086504,89
1767764434,6737.890243530273,13086490,89
1767764434,6736.736297607422,13086474,89
1767764434,6732.841730117798,13086454,89
1767764434,6723.706324895223,13086438,89
1767764434,6707.839568456014,13086413,89
1767764434,6686.539649963379,13086386,89
1767764434,6663.316488265991,13086358,89
1767764434,6643.314758936564,13086323,89
1767764435,6630.477110544841,13086296,89
1767764435,6626.582543055217,13086258,89
1767764435,6629.900137583415,13086225,89
1767764435,6636.439164479573,13086185,89
1767764435,6640.766461690267,13086145,89
1767764435,6574.270327885945,13085925,89
1767764435,6565.471490224202,13085878,89
1767764435,6566.625436147054,13085833,89
1767764435,6576.53013865153,13085783,89
1767764435,6591.916084289551,13085735,89
1767764435,6623.8900025685625,13085491,89
1767764435,6617.495218912761,13085440,89
1767764435,6612.013975779216,13085387,89
1767764435,6609.658002853394,13085335,89
1767764435,6611.052354176839,13085294,89
1767764435,6616.052786509196,13085248,89
1767764435,6623.361110687256,13085200,89
1767764435,6631.438732147217,13085151,89
1767764435,6638.650894165039,13085103,89
1767764435,6644.035975138347,13085056,89
1767764435,6647.209326426188,13085008,89
1767764435,6648.411353429158,13084963,89
1767764435,6648.170948028564,13084918,89
1767764435,6646.872758865356,13084876,89
1767764435,6645.189921061198,13084823,89
1767764435,6643.939812978108,13084776,89
1767764435,6643.89173189799,13084733,89
1767764435,6645.286083221436,13084690,89
1767764435,6647.738218307495,13084642,89
1767764435,6650.719245274861,13084596,89
1767764435,6653.3637046813965,13084464,89
1767764435,6650.8154074351,13084416,89
1767764435,6647.593975067139,13084372,89
1767764435,6645.189921061198,13084325,89
1767764435,6645.141839981079,13084281,89
1767764435,6647.54589398702,13084232,89
1767764435,6651.536623636882,13084189,89
